4998.45537	-0.07071
4997.49116	-0.07058
4996.52695	-0.07035
4995.56274	-0.07014
4994.59854	-0.06990
4993.63433	-0.06963
4992.67012	-0.06936
4991.70591	-0.06910
4990.74170	-0.06899
4989.77749	-0.06896
4988.81329	-0.06872
4987.84908	-0.06831
4986.88487	-0.06807
4985.92066	-0.06800
4984.95645	-0.06792
4983.99225	-0.06771
4983.02804	-0.06744
4982.06383	-0.06729
4981.09962	-0.06719
4980.13541	-0.06695
4979.17120	-0.06671
4978.20700	-0.06656
4977.24279	-0.06635
4976.27858	-0.06614
4975.31437	-0.06600
4974.35016	-0.06585
4973.38596	-0.06567
4972.42175	-0.06550
4971.45754	-0.06524
4970.49333	-0.06486
4969.52912	-0.06452
4968.56491	-0.06432
4967.60071	-0.06416
4966.63650	-0.06395
4965.67229	-0.06366
4964.70808	-0.06335
4963.74387	-0.06315
4962.77966	-0.06297
4961.81546	-0.06263
4960.85125	-0.06226
4959.88704	-0.06210
4958.92283	-0.06205
4957.95862	-0.06187
4956.99442	-0.06154
4956.03021	-0.06125
4955.06600	-0.06105
4954.10179	-0.06086
4953.13758	-0.06070
4952.17337	-0.06053
4951.20917	-0.06025
4950.24496	-0.05994
4949.28075	-0.05969
4948.31654	-0.05951
4947.35233	-0.05928
4946.38813	-0.05890
4945.42392	-0.05855
4944.45971	-0.05833
4943.49550	-0.05813
4942.53129	-0.05786
4941.56708	-0.05762
4940.60288	-0.05743
4939.63867	-0.05717
4938.67446	-0.05683
4937.71025	-0.05654
4936.74604	-0.05630
4935.78183	-0.05605
4934.81763	-0.05571
4933.85342	-0.05526
4932.88921	-0.05486
4931.92500	-0.05462
4930.96079	-0.05448
4929.99659	-0.05436
4929.03238	-0.05418
4928.06817	-0.05392
4927.10396	-0.05369
4926.13975	-0.05350
4925.17554	-0.05324
4924.21134	-0.05291
4923.24713	-0.05254
4922.28292	-0.05222
4921.31871	-0.05197
4920.35450	-0.05171
4919.39030	-0.05142
4918.42609	-0.05121
4917.46188	-0.05098
4916.49767	-0.05062
4915.53346	-0.05032
4914.56925	-0.05016
4913.60505	-0.04990
4912.64084	-0.04951
4911.67663	-0.04919
4910.71242	-0.04898
4909.74821	-0.04881
4908.78400	-0.04864
4907.81980	-0.04844
4906.85559	-0.04819
4905.89138	-0.04783
4904.92717	-0.04735
4903.96296	-0.04681
4902.99876	-0.04641
4902.03455	-0.04621
4901.07034	-0.04605
4900.10613	-0.04586
4899.14192	-0.04563
4898.17771	-0.04535
4897.21351	-0.04512
4896.24930	-0.04498
4895.28509	-0.04469
4894.32088	-0.04419
4893.35667	-0.04371
4892.39247	-0.04340
4891.42826	-0.04320
4890.46405	-0.04301
4889.49984	-0.04273
4888.53563	-0.04241
4887.57142	-0.04210
4886.60722	-0.04177
4885.64301	-0.04142
4884.67880	-0.04109
4883.71459	-0.04077
4882.75038	-0.04049
4881.78618	-0.04022
4880.82197	-0.03996
4879.85776	-0.03964
4878.89355	-0.03922
4877.92934	-0.03891
4876.96513	-0.03878
4876.00093	-0.03865
4875.03672	-0.03840
4874.07251	-0.03814
4873.10830	-0.03791
4872.14409	-0.03758
4871.17988	-0.03712
4870.21568	-0.03670
4869.25147	-0.03638
4868.28726	-0.03606
4867.32305	-0.03576
4866.35884	-0.03541
4865.39464	-0.03501
4864.43043	-0.03467
4863.46622	-0.03448
4862.50201	-0.03430
4861.53780	-0.03400
4860.57359	-0.03366
4859.60939	-0.03338
4858.64518	-0.03316
4857.68097	-0.03293
4856.71676	-0.03260
4855.75255	-0.03219
4854.78835	-0.03175
4853.82414	-0.03134
4852.85993	-0.03102
4851.89572	-0.03077
4850.93151	-0.03050
4849.96730	-0.03019
4849.00310	-0.02992
4848.03889	-0.02973
4847.07468	-0.02955
4846.11047	-0.02930
4845.14626	-0.02900
4844.18205	-0.02867
4843.21785	-0.02830
4842.25364	-0.02795
4841.28943	-0.02758
4840.32522	-0.02715
4839.36101	-0.02676
4838.39681	-0.02647
4837.43260	-0.02625
4836.46839	-0.02598
4835.50418	-0.02554
4834.53997	-0.02505
4833.57576	-0.02473
4832.61156	-0.02457
4831.64735	-0.02437
4830.68314	-0.02408
4829.71893	-0.02377
4828.75472	-0.02348
4827.79052	-0.02309
4826.82631	-0.02264
4825.86210	-0.02234
4824.89789	-0.02216
4823.93368	-0.02198
4822.96947	-0.02173
4822.00527	-0.02138
4821.04106	-0.02109
4820.07685	-0.02093
4819.11264	-0.02073
4818.14843	-0.02038
4817.18422	-0.01992
4816.22002	-0.01942
4815.25581	-0.01901
4814.29160	-0.01878
4813.32739	-0.01860
4812.36318	-0.01837
4811.39898	-0.01805
4810.43477	-0.01765
4809.47056	-0.01724
4808.50635	-0.01687
4807.54214	-0.01656
4806.57793	-0.01630
4805.61373	-0.01605
4804.64952	-0.01574
4803.68531	-0.01539
4802.72110	-0.01504
4801.75689	-0.01473
4800.79269	-0.01445
4799.82848	-0.01413
4798.86427	-0.01381
4797.90006	-0.01353
4796.93585	-0.01321
4795.97164	-0.01287
4795.00744	-0.01257
4794.04323	-0.01223
4793.07902	-0.01184
4792.11481	-0.01154
4791.15060	-0.01133
4790.18639	-0.01111
4789.22219	-0.01095
4788.25798	-0.01080
4787.29377	-0.01043
4786.32956	-0.00990
4785.36535	-0.00951
4784.40115	-0.00925
4783.43694	-0.00892
4782.47273	-0.00858
4781.50852	-0.00827
4780.54431	-0.00799
4779.58010	-0.00773
4778.61590	-0.00743
4777.65169	-0.00711
4776.68748	-0.00681
4775.72327	-0.00651
4774.75906	-0.00621
4773.79486	-0.00591
4772.83065	-0.00554
4771.86644	-0.00512
4770.90223	-0.00476
4769.93802	-0.00450
4768.97381	-0.00425
4768.00961	-0.00399
4767.04540	-0.00373
4766.08119	-0.00349
4765.11698	-0.00319
4764.15277	-0.00279
4763.18857	-0.00237
4762.22436	-0.00208
4761.26015	-0.00195
4760.29594	-0.00174
4759.33173	-0.00130
4758.36752	-0.00077
4757.40332	-0.00035
4756.43911	-0.00004
4755.47490	0.00014
4754.51069	0.00025
4753.54648	0.00047
4752.58227	0.00077
4751.61807	0.00102
4750.65386	0.00130
4749.68965	0.00166
4748.72544	0.00201
4747.76123	0.00236
4746.79703	0.00273
4745.83282	0.00303
4744.86861	0.00331
4743.90440	0.00360
4742.94019	0.00390
4741.97598	0.00417
4741.01178	0.00442
4740.04757	0.00476
4739.08336	0.00521
4738.11915	0.00560
4737.15494	0.00580
4736.19074	0.00595
4735.22653	0.00613
4734.26232	0.00637
4733.29811	0.00678
4732.33390	0.00723
4731.36969	0.00750
4730.40549	0.00770
4729.44128	0.00808
4728.47707	0.00859
4727.51286	0.00896
4726.54865	0.00918
4725.58444	0.00941
4724.62024	0.00966
4723.65603	0.00991
4722.69182	0.01023
4721.72761	0.01052
4720.76340	0.01073
4719.79920	0.01099
4718.83499	0.01130
4717.87078	0.01161
4716.90657	0.01193
4715.94236	0.01224
4714.97815	0.01254
4714.01395	0.01287
4713.04974	0.01320
4712.08553	0.01347
4711.12132	0.01376
4710.15711	0.01406
4709.19291	0.01434
4708.22870	0.01462
4707.26449	0.01490
4706.30028	0.01514
4705.33607	0.01537
4704.37186	0.01566
4703.40766	0.01598
4702.44345	0.01628
4701.47924	0.01657
4700.51503	0.01683
4699.55082	0.01711
4698.58661	0.01750
4697.62241	0.01794
4696.65820	0.01821
4695.69399	0.01833
4694.72978	0.01854
4693.76557	0.01894
4692.80137	0.01934
4691.83716	0.01960
4690.87295	0.01987
4689.90874	0.02018
4688.94453	0.02039
4687.98032	0.02056
4687.01612	0.02082
4686.05191	0.02120
4685.08770	0.02157
4684.12349	0.02185
4683.15928	0.02207
4682.19508	0.02225
4681.23087	0.02247
4680.26666	0.02272
4679.30245	0.02294
4678.33824	0.02322
4677.37403	0.02357
4676.40983	0.02395
4675.44562	0.02428
4674.48141	0.02449
4673.51720	0.02462
4672.55299	0.02486
4671.58878	0.02526
4670.62458	0.02563
4669.66037	0.02591
4668.69616	0.02615
4667.73195	0.02641
4666.76774	0.02668
4665.80354	0.02694
4664.83933	0.02719
4663.87512	0.02739
4662.91091	0.02758
4661.94670	0.02788
4660.98249	0.02826
4660.01829	0.02862
4659.05408	0.02896
4658.08987	0.02927
4657.12566	0.02955
4656.16145	0.02984
4655.19725	0.03008
4654.23304	0.03022
4653.26883	0.03041
4652.30462	0.03073
4651.34041	0.03107
4650.37620	0.03129
4649.41200	0.03143
4648.44779	0.03165
4647.48358	0.03195
4646.51937	0.03226
4645.55516	0.03260
4644.59096	0.03298
4643.62675	0.03326
4642.66254	0.03341
4641.69833	0.03354
4640.73412	0.03373
4639.76991	0.03399
4638.80571	0.03430
4637.84150	0.03468
4636.87729	0.03508
4635.91308	0.03538
4634.94887	0.03553
4633.98466	0.03566
4633.02046	0.03588
4632.05625	0.03616
4631.09204	0.03648
4630.12783	0.03683
4629.16362	0.03714
4628.19942	0.03736
4627.23521	0.03759
4626.27100	0.03787
4625.30679	0.03817
4624.34258	0.03841
4623.37837	0.03853
4622.41417	0.03864
4621.44996	0.03890
4620.48575	0.03931
4619.52154	0.03967
4618.55733	0.03989
4617.59313	0.04007
4616.62892	0.04037
4615.66471	0.04071
4614.70050	0.04094
4613.73629	0.04114
4612.77208	0.04144
4611.80788	0.04177
4610.84367	0.04198
4609.87946	0.04213
4608.91525	0.04235
4607.95104	0.04262
4606.98683	0.04287
4606.02263	0.04309
4605.05842	0.04329
4604.09421	0.04355
4603.13000	0.04389
4602.16579	0.04422
4601.20159	0.04446
4600.23738	0.04465
4599.27317	0.04486
4598.30896	0.04511
4597.34475	0.04537
4596.38054	0.04556
4595.41634	0.04568
4594.45213	0.04591
4593.48792	0.04633
4592.52371	0.04672
4591.55950	0.04690
4590.59530	0.04701
4589.63109	0.04723
4588.66688	0.04757
4587.70267	0.04787
4586.73846	0.04811
4585.77425	0.04836
4584.81005	0.04863
4583.84584	0.04878
4582.88163	0.04884
4581.91742	0.04897
4580.95321	0.04927
4579.98900	0.04966
4579.02480	0.04998
4578.06059	0.05022
4577.09638	0.05042
4576.13217	0.05061
4575.16796	0.05085
4574.20376	0.05113
4573.23955	0.05138
4572.27534	0.05159
4571.31113	0.05177
4570.34692	0.05198
4569.38271	0.05223
4568.41851	0.05248
4567.45430	0.05267
4566.49009	0.05284
4565.52588	0.05305
4564.56167	0.05330
4563.59747	0.05355
4562.63326	0.05377
4561.66905	0.05397
4560.70484	0.05413
4559.74063	0.05431
4558.77642	0.05458
4557.81222	0.05488
4556.84801	0.05514
4555.88380	0.05534
4554.91959	0.05554
4553.95538	0.05575
4552.99117	0.05598
4552.02697	0.05622
4551.06276	0.05645
4550.09855	0.05670
4549.13434	0.05698
4548.17013	0.05720
4547.20593	0.05735
4546.24172	0.05745
4545.27751	0.05758
4544.31330	0.05781
4543.34909	0.05810
4542.38488	0.05840
4541.42068	0.05866
4540.45647	0.05884
4539.49226	0.05899
4538.52805	0.05920
4537.56384	0.05950
4536.59964	0.05977
4535.63543	0.05994
4534.67122	0.06011
4533.70701	0.06031
4532.74280	0.06051
4531.77859	0.06071
4530.81439	0.06092
4529.85018	0.06111
4528.88597	0.06130
4527.92176	0.06153
4526.95755	0.06178
4525.99335	0.06201
4525.02914	0.06219
4524.06493	0.06241
4523.10072	0.06271
4522.13651	0.06298
4521.17230	0.06316
4520.20810	0.06330
4519.24389	0.06346
4518.27968	0.06364
4517.31547	0.06384
4516.35126	0.06405
4515.38705	0.06427
4514.42285	0.06448
4513.45864	0.06470
4512.49443	0.06490
4511.53022	0.06507
4510.56601	0.06528
4509.60181	0.06553
4508.63760	0.06577
4507.67339	0.06600
4506.70918	0.06620
4505.74497	0.06639
4504.78076	0.06665
4503.81656	0.06693
4502.85235	0.06713
4501.88814	0.06727
4500.92393	0.06742
4499.95972	0.06757
4498.99552	0.06773
4498.03131	0.06793
4497.06710	0.06814
4496.10289	0.06834
4495.13868	0.06858
4494.17447	0.06882
4493.21027	0.06903
4492.24606	0.06923
4491.28185	0.06940
4490.31764	0.06954
4489.35343	0.06966
4488.38922	0.06981
4487.42502	0.07004
4486.46081	0.07030
4485.49660	0.07047
4484.53239	0.07059
4483.56818	0.07072
4482.60398	0.07087
4481.63977	0.07106
4480.67556	0.07135
4479.71135	0.07166
4478.74714	0.07184
4477.78293	0.07193
4476.81873	0.07206
4475.85452	0.07226
4474.89031	0.07243
4473.92610	0.07259
4472.96189	0.07279
4471.99769	0.07298
4471.03348	0.07316
4470.06927	0.07337
4469.10506	0.07357
4468.14085	0.07374
4467.17664	0.07394
4466.21244	0.07418
4465.24823	0.07439
4464.28402	0.07456
4463.31981	0.07469
4462.35560	0.07480
4461.39139	0.07497
4460.42719	0.07522
4459.46298	0.07547
4458.49877	0.07569
4457.53456	0.07584
4456.57035	0.07595
4455.60615	0.07605
4454.64194	0.07617
4453.67773	0.07637
4452.71352	0.07664
4451.74931	0.07683
4450.78510	0.07692
4449.82090	0.07705
4448.85669	0.07726
4447.89248	0.07749
4446.92827	0.07768
4445.96406	0.07781
4444.99986	0.07792
4444.03565	0.07807
4443.07144	0.07821
4442.10723	0.07830
4441.14302	0.07841
4440.17881	0.07861
4439.21461	0.07880
4438.25040	0.07892
4437.28619	0.07901
4436.32198	0.07913
4435.35777	0.07931
4434.39356	0.07958
4433.42936	0.07989
4432.46515	0.08009
4431.50094	0.08018
4430.53673	0.08023
4429.57252	0.08032
4428.60832	0.08046
4427.64411	0.08062
4426.67990	0.08083
4425.71569	0.08106
4424.75148	0.08123
4423.78727	0.08131
4422.82307	0.08140
4421.85886	0.08153
4420.89465	0.08174
4419.93044	0.08201
4418.96623	0.08221
4418.00203	0.08227
4417.03782	0.08236
4416.07361	0.08254
4415.10940	0.08275
4414.14519	0.08292
4413.18098	0.08304
4412.21678	0.08317
4411.25257	0.08330
4410.28836	0.08342
4409.32415	0.08360
4408.35994	0.08379
4407.39573	0.08391
4406.43153	0.08402
4405.46732	0.08419
4404.50311	0.08439
4403.53890	0.08459
4402.57469	0.08474
4401.61049	0.08482
4400.64628	0.08487
4399.68207	0.08497
4398.71786	0.08516
4397.75365	0.08542
4396.78944	0.08564
4395.82524	0.08574
4394.86103	0.08580
4393.89682	0.08592
4392.93261	0.08607
4391.96840	0.08619
4391.00420	0.08636
4390.03999	0.08658
4389.07578	0.08674
4388.11157	0.08683
4387.14736	0.08694
4386.18315	0.08709
4385.21895	0.08722
4384.25474	0.08735
4383.29053	0.08752
4382.32632	0.08764
4381.36211	0.08773
4380.39791	0.08787
4379.43370	0.08807
4378.46949	0.08827
4377.50528	0.08848
4376.54107	0.08864
4375.57686	0.08879
4374.61266	0.08892
4373.64845	0.08900
4372.68424	0.08903
4371.72003	0.08911
4370.75582	0.08929
4369.79161	0.08948
4368.82741	0.08960
4367.86320	0.08971
4366.89899	0.08988
4365.93478	0.09004
4364.97057	0.09014
4364.00637	0.09028
4363.04216	0.09048
4362.07795	0.09064
4361.11374	0.09073
4360.14953	0.09082
4359.18532	0.09092
4358.22112	0.09099
4357.25691	0.09109
4356.29270	0.09125
4355.32849	0.09144
4354.36428	0.09162
4353.40008	0.09179
4352.43587	0.09196
4351.47166	0.09211
4350.50745	0.09220
4349.54324	0.09227
4348.57903	0.09233
4347.61483	0.09244
4346.65062	0.09261
4345.68641	0.09276
4344.72220	0.09286
4343.75799	0.09298
4342.79378	0.09315
4341.82958	0.09330
4340.86537	0.09338
4339.90116	0.09347
4338.93695	0.09364
4337.97274	0.09384
4337.00854	0.09398
4336.04433	0.09402
4335.08012	0.09407
4334.11591	0.09416
4333.15170	0.09429
4332.18749	0.09449
4331.22329	0.09475
4330.25908	0.09495
4329.29487	0.09506
4328.33066	0.09516
4327.36645	0.09530
4326.40225	0.09547
4325.43804	0.09563
4324.47383	0.09575
4323.50962	0.09585
4322.54541	0.09596
4321.58120	0.09606
4320.61700	0.09616
4319.65279	0.09630
4318.68858	0.09644
4317.72437	0.09656
4316.76016	0.09666
4315.79595	0.09677
4314.83175	0.09689
4313.86754	0.09702
4312.90333	0.09714
4311.93912	0.09729
4310.97491	0.09750
4310.01071	0.09770
4309.04650	0.09784
4308.08229	0.09791
4307.11808	0.09798
4306.15387	0.09808
4305.18966	0.09821
4304.22546	0.09838
4303.26125	0.09856
4302.29704	0.09869
4301.33283	0.09883
4300.36862	0.09899
4299.40442	0.09912
4298.44021	0.09924
4297.47600	0.09938
4296.51179	0.09955
4295.54758	0.09971
4294.58337	0.09977
4293.61917	0.09975
4292.65496	0.09982
4291.69075	0.10000
4290.72654	0.10017
4289.76233	0.10026
4288.79812	0.10033
4287.83392	0.10048
4286.86971	0.10067
4285.90550	0.10083
4284.94129	0.10095
4283.97708	0.10108
4283.01288	0.10119
4282.04867	0.10121
4281.08446	0.10120
4280.12025	0.10129
4279.15604	0.10148
4278.19183	0.10161
4277.22763	0.10167
4276.26342	0.10179
4275.29921	0.10195
4274.33500	0.10206
4273.37079	0.10211
4272.40659	0.10215
4271.44238	0.10223
4270.47817	0.10240
4269.51396	0.10258
4268.54975	0.10275
4267.58554	0.10288
4266.62134	0.10299
4265.65713	0.10306
4264.69292	0.10312
4263.72871	0.10319
4262.76450	0.10328
4261.80030	0.10334
4260.83609	0.10335
4259.87188	0.10337
4258.90767	0.10347
4257.94346	0.10367
4256.97925	0.10389
4256.01505	0.10399
4255.05084	0.10403
4254.08663	0.10411
4253.12242	0.10428
4252.15821	0.10445
4251.19400	0.10457
4250.22980	0.10467
4249.26559	0.10480
4248.30138	0.10491
4247.33717	0.10499
4246.37296	0.10503
4245.40876	0.10507
4244.44455	0.10518
4243.48034	0.10537
4242.51613	0.10556
4241.55192	0.10565
4240.58771	0.10566
4239.62351	0.10569
4238.65930	0.10584
4237.69509	0.10601
4236.73088	0.10614
4235.76667	0.10625
4234.80247	0.10633
4233.83826	0.10641
4232.87405	0.10653
4231.90984	0.10664
4230.94563	0.10668
4229.98142	0.10667
4229.01722	0.10672
4228.05301	0.10688
4227.08880	0.10706
4226.12459	0.10714
4225.16038	0.10719
4224.19617	0.10729
4223.23197	0.10740
4222.26776	0.10751
4221.30355	0.10759
4220.33934	0.10761
4219.37513	0.10762
4218.41093	0.10768
4217.44672	0.10781
4216.48251	0.10795
4215.51830	0.10807
4214.55409	0.10822
4213.58988	0.10838
4212.62568	0.10854
4211.66147	0.10868
4210.69726	0.10876
4209.73305	0.10882
4208.76884	0.10891
4207.80464	0.10902
4206.84043	0.10913
4205.87622	0.10918
4204.91201	0.10922
4203.94780	0.10936
4202.98359	0.10954
4202.01939	0.10965
4201.05518	0.10969
4200.09097	0.10972
4199.12676	0.10981
4198.16255	0.10996
4197.19834	0.11010
4196.23414	0.11015
4195.26993	0.11014
4194.30572	0.11018
4193.34151	0.11032
4192.37730	0.11046
4191.41310	0.11059
4190.44889	0.11076
4189.48468	0.11091
4188.52047	0.11097
4187.55626	0.11098
4186.59205	0.11106
4185.62785	0.11118
4184.66364	0.11130
4183.69943	0.11142
4182.73522	0.11149
4181.77101	0.11150
4180.80681	0.11157
4179.84260	0.11169
4178.87839	0.11175
4177.91418	0.11175
4176.94997	0.11179
4175.98576	0.11191
4175.02156	0.11209
4174.05735	0.11221
4173.09314	0.11228
4172.12893	0.11236
4171.16472	0.11248
4170.20051	0.11262
4169.23631	0.11275
4168.27210	0.11284
4167.30789	0.11287
4166.34368	0.11292
4165.37947	0.11304
4164.41527	0.11316
4163.45106	0.11322
4162.48685	0.11323
4161.52264	0.11325
4160.55843	0.11332
4159.59422	0.11343
4158.63002	0.11356
4157.66581	0.11369
4156.70160	0.11378
4155.73739	0.11385
4154.77318	0.11392
4153.80898	0.11403
4152.84477	0.11416
4151.88056	0.11427
4150.91635	0.11433
4149.95214	0.11438
4148.98793	0.11447
4148.02373	0.11456
4147.05952	0.11464
4146.09531	0.11475
4145.13110	0.11486
4144.16689	0.11495
4143.20269	0.11500
4142.23848	0.11503
4141.27427	0.11510
4140.31006	0.11522
4139.34585	0.11527
4138.38164	0.11530
4137.41744	0.11540
4136.45323	0.11553
4135.48902	0.11559
4134.52481	0.11558
4133.56060	0.11562
4132.59639	0.11582
4131.63219	0.11608
4130.66798	0.11628
4129.70377	0.11636
4128.73956	0.11640
4127.77535	0.11642
4126.81115	0.11642
4125.84694	0.11645
4124.88273	0.11651
4123.91852	0.11657
4122.95431	0.11667
4121.99010	0.11682
4121.02590	0.11698
4120.06169	0.11710
4119.09748	0.11719
4118.13327	0.11724
4117.16906	0.11726
4116.20486	0.11732
4115.24065	0.11744
4114.27644	0.11756
4113.31223	0.11766
4112.34802	0.11773
4111.38381	0.11778
4110.41961	0.11784
4109.45540	0.11791
4108.49119	0.11797
4107.52698	0.11793
4106.56277	0.11776
4105.59856	0.11767
4104.63436	0.11784
4103.67015	0.11814
4102.70594	0.11837
4101.74173	0.11854
4100.77752	0.11867
4099.81332	0.11874
4098.84911	0.11873
4097.88490	0.11875
4096.92069	0.11886
4095.95648	0.11897
4094.99227	0.11902
4094.02807	0.11908
4093.06386	0.11915
4092.09965	0.11922
4091.13544	0.11928
4090.17123	0.11933
4089.20703	0.11932
4088.24282	0.11927
4087.27861	0.11934
4086.31440	0.11953
4085.35019	0.11966
4084.38598	0.11973
4083.42178	0.11983
4082.45757	0.11992
4081.49336	0.11993
4080.52915	0.11988
4079.56494	0.11986
4078.60073	0.12002
4077.63653	0.12026
4076.67232	0.12037
4075.70811	0.12037
4074.74390	0.12036
4073.77969	0.12040
4072.81549	0.12050
4071.85128	0.12061
4070.88707	0.12074
4069.92286	0.12087
4068.95865	0.12094
4067.99444	0.12095
4067.03024	0.12093
4066.06603	0.12097
4065.10182	0.12106
4064.13761	0.12112
4063.17340	0.12115
4062.20920	0.12116
4061.24499	0.12117
4060.28078	0.12124
4059.31657	0.12142
4058.35236	0.12156
4057.38815	0.12163
4056.42395	0.12173
4055.45974	0.12183
4054.49553	0.12187
4053.53132	0.12192
4052.56711	0.12197
4051.60290	0.12202
4050.63870	0.12211
4049.67449	0.12224
4048.71028	0.12232
4047.74607	0.12236
4046.78186	0.12233
4045.81766	0.12203
4044.85345	0.12162
4043.88924	0.12163
4042.92503	0.12209
4041.96082	0.12255
4040.99661	0.12282
4040.03241	0.12296
4039.06820	0.12306
4038.10399	0.12315
4037.13978	0.12320
4036.17557	0.12324
4035.21137	0.12332
4034.24716	0.12340
4033.28295	0.12343
4032.31874	0.12346
4031.35453	0.12350
4030.39032	0.12351
4029.42612	0.12355
4028.46191	0.12371
4027.49770	0.12385
4026.53349	0.12370
4025.56928	0.12338
4024.60508	0.12341
4023.64087	0.12384
4022.67666	0.12419
4021.71245	0.12425
4020.74824	0.12414
4019.78403	0.12397
4018.81983	0.12397
4017.85562	0.12418
4016.89141	0.12436
4015.92720	0.12446
4014.96299	0.12458
4013.99878	0.12465
4013.03458	0.12462
4012.07037	0.12464
4011.10616	0.12477
4010.14195	0.12470
4009.17774	0.12425
4008.21354	0.12401
4007.24933	0.12441
4006.28512	0.12493
4005.32091	0.12511
4004.35670	0.12512
4003.39249	0.12517
4002.42829	0.12527
4001.46408	0.12538
4000.49987	0.12546
3999.53566	0.12549
3998.57145	0.12553
3997.60725	0.12559
3996.64304	0.12552
3995.67883	0.12520
3994.71462	0.12503
3993.75041	0.12536
3992.78620	0.12571
3991.82200	0.12558
3990.85779	0.12524
3989.89358	0.12526
3988.92937	0.12572
3987.96516	0.12612
3987.00095	0.12626
3986.03675	0.12624
3985.07254	0.12623
3984.10833	0.12623
3983.14412	0.12607
3982.17991	0.12595
3981.21571	0.12613
3980.25150	0.12643
3979.28729	0.12662
3978.32308	0.12668
3977.35887	0.12647
3976.39466	0.12594
3975.43046	0.12559
3974.46625	0.12563
3973.50204	0.12573
3972.53783	0.12581
3971.57362	0.12616
3970.60942	0.12652
3969.64521	0.12642
3968.68100	0.12640
3967.71679	0.12691
3966.75258	0.12738
3965.78837	0.12750
3964.82417	0.12743
3963.85996	0.12720
3962.89575	0.12636
3961.93154	0.12541
3960.96733	0.12565
3960.00312	0.12664
3959.03892	0.12707
3958.07471	0.12694
3957.11050	0.12680
3956.14629	0.12702
3955.18208	0.12746
3954.21788	0.12747
3953.25367	0.12706
3952.28946	0.12691
3951.32525	0.12598
3950.36104	0.12374
3949.39683	0.12242
3948.43263	0.12238
3947.46842	0.12280
3946.50421	0.12472
3945.54000	0.12685
3944.57579	0.12620
3943.61159	0.12230
3942.64738	0.11917
3941.68317	0.12146
3940.71896	0.12611
3939.75475	0.12806
3938.79054	0.12803
3937.82634	0.12813
3936.86213	0.12868
3935.89792	0.12876
3934.93371	0.12778
3933.96950	0.12470
3933.00529	0.11926
3932.04109	0.11646
3931.07688	0.11932
3930.11267	0.12289
3929.14846	0.12460
3928.18425	0.12669
3927.22005	0.12803
3926.25584	0.12554
3925.29163	0.12063
3924.32742	0.11916
3923.36321	0.12276
3922.39900	0.12644
3921.43480	0.12541
3920.47059	0.12054
3919.50638	0.11875
3918.54217	0.11856
3917.57796	0.11371
3916.61376	0.11222
3915.64955	0.11969
3914.68534	0.12722
3913.72113	0.12969
3912.75692	0.13004
3911.79271	0.13022
3910.82851	0.13030
3909.86430	0.13037
3908.90009	0.13036
3907.93588	0.12930
3906.97167	0.12516
3906.00746	0.11589
3905.04326	0.10083
3904.07905	0.09014
3903.11484	0.09049
3902.15063	0.09213
3901.18642	0.09466
3900.22222	0.09733
3899.25801	0.09654
3898.29380	0.10483
3897.32959	0.12022
3896.36538	0.12842
3895.40117	0.12942
3894.43697	0.12796
3893.47276	0.12438
3892.50855	0.11224
3891.54434	0.09624
3890.58013	0.09787
3889.61593	0.11602
3888.65172	0.12788
3887.68751	0.12423
3886.72330	0.10335
3885.75909	0.08231
3884.79488	0.08929
3883.83068	0.11164
3882.86647	0.12221
3881.90226	0.11790
3880.93805	0.10467
3879.97384	0.09917
3879.00964	0.11151
3878.04543	0.12592
3877.08122	0.13045
3876.11701	0.12710
3875.15280	0.11569
3874.18859	0.10559
3873.22439	0.11013
3872.26018	0.11717
3871.29597	0.10188
3870.33176	0.07131
3869.36755	0.06566
3868.40334	0.09317
3867.43914	0.11838
3866.47493	0.11622
3865.51072	0.09660
3864.54651	0.08982
3863.58230	0.10311
3862.61810	0.11125
3861.65389	0.11033
3860.68968	0.11682
3859.72547	0.12663
3858.76126	0.12820
3857.79705	0.12259
3856.83285	0.11638
3855.86864	0.09247
3854.90443	0.03315
3853.94022	0.00325
3852.97601	0.00770
3852.01181	0.03400
3851.04760	0.07197
3850.08339	0.10859
3849.11918	0.12527
3848.15497	0.12963
3847.19076	0.13166
3846.22656	0.13140
3845.26235	0.12640
3844.29814	0.11617
3843.33393	0.11108
3842.36972	0.11275
3841.40551	0.10873
3840.44131	0.10191
3839.47710	0.09104
3838.51289	0.06140
3837.54868	0.04586
3836.58447	0.07047
3835.62027	0.09485
3834.65606	0.10068
3833.69185	0.11035
3832.72764	0.11348
3831.76343	0.10559
3830.79922	0.10939
3829.83502	0.12364
3828.87081	0.12978
3827.90660	0.12502
3826.94239	0.11821
3825.97818	0.11881
3825.01398	0.12523
3824.04977	0.12691
3823.08556	0.11367
3822.12135	0.08289
3821.15714	0.06083
3820.19293	0.07378
3819.22873	0.10479
3818.26452	0.11863
3817.30031	0.09601
3816.33610	0.05712
3815.37189	0.05775
3814.40768	0.09895
3813.44348	0.12805
3812.47927	0.13422
3811.51506	0.13483
3810.55085	0.13479
3809.58664	0.13332
3808.62244	0.12034
3807.65823	0.08983
3806.69402	0.07317
3805.72981	0.09482
3804.76560	0.12151
3803.80139	0.12314
3802.83719	0.09683
3801.87298	0.05554
3800.90877	0.04750
3799.94456	0.08554
3798.98035	0.12009
3798.01615	0.12440
3797.05194	0.11441
3796.08773	0.11105
3795.12352	0.12127
3794.15931	0.13248
3793.19510	0.13619
3792.23090	0.13673
3791.26669	0.13695
3790.30248	0.13691
3789.33827	0.13682
3788.37406	0.13667
3787.40985	0.13623
3786.44565	0.13434
3785.48144	0.13089
3784.51723	0.12910
3783.55302	0.13162
3782.58881	0.13513
3781.62461	0.13460
3780.66040	0.12664
3779.69619	0.11606
3778.73198	0.11699
3777.76777	0.12799
3776.80356	0.13554
3775.83936	0.13754
3774.87515	0.13783
3773.91094	0.13779
3772.94673	0.13724
3771.98252	0.13358
3771.01832	0.12019
3770.05411	0.10399
3769.08990	0.10663
3768.12569	0.12323
3767.16148	0.12832
3766.19727	0.11979
3765.23307	0.11715
3764.26886	0.12625
3763.30465	0.13430
3762.34044	0.13578
3761.37623	0.13017
3760.41203	0.11654
3759.44782	0.10839
3758.48361	0.11542
3757.51940	0.12166
3756.55519	0.12062
3755.59098	0.12369
3754.62678	0.12580
3753.66257	0.10156
3752.69836	0.05147
3751.73415	0.03170
3750.76994	0.04309
3749.80573	0.03487
3748.84153	0.03627
3747.87732	0.07921
3746.91311	0.10802
3745.94890	0.07373
3744.98469	0.00497
3744.02049	-0.00700
3743.05628	0.05178
3742.09207	0.10898
3741.12786	0.12261
3740.16365	0.12482
3739.19944	0.12420
3738.23524	0.11149
3737.27103	0.08676
3736.30682	0.06690
3735.34261	0.06694
3734.37840	0.08258
3733.41420	0.09046
3732.44999	0.08062
3731.48578	0.08412
3730.52157	0.11172
3729.55736	0.13194
3728.59315	0.13414
3727.62895	0.12562
3726.66474	0.11516
3725.70053	0.11461
3724.73632	0.12213
3723.77211	0.12525
3722.80790	0.11998
3721.84370	0.11805
3720.87949	0.12581
3719.91528	0.13086
3718.95107	0.12997
3717.98686	0.13222
3717.02266	0.13692
3716.05845	0.13747
3715.09424	0.13453
3714.13003	0.12599
3713.16582	0.09951
3712.20161	0.07110
3711.23741	0.07648
3710.27320	0.09601
3709.30899	0.10317
3708.34478	0.11464
3707.38057	0.13077
3706.41637	0.13754
3705.45216	0.13831
3704.48795	0.13842
3703.52374	0.13443
3702.55953	0.12210
3701.59532	0.11353
3700.63112	0.12141
3699.66691	0.13394
3698.70270	0.13877
3697.73849	0.13862
3696.77428	0.13768
3695.81007	0.13715
3694.84587	0.13722
3693.88166	0.13629
3692.91745	0.12943
3691.95324	0.11232
3690.98903	0.09846
3690.02483	0.08850
3689.06062	0.05975
3688.09641	0.04498
3687.13220	0.08157
3686.16799	0.12307
3685.20378	0.13588
3684.23958	0.13696
3683.27537	0.13791
3682.31116	0.13847
3681.34695	0.13627
3680.38274	0.12929
3679.41854	0.12268
3678.45433	0.12098
3677.49012	0.10590
3676.52591	0.06000
3675.56170	0.02311
3674.59749	0.04248
3673.63329	0.09303
3672.66908	0.11580
3671.70487	0.09074
3670.74066	0.05306
3669.77645	0.05373
3668.81224	0.08215
3667.84804	0.10856
3666.88383	0.12756
3665.91962	0.13600
3664.95541	0.13736
3663.99120	0.13762
3663.02700	0.13754
3662.06279	0.13737
3661.09858	0.13671
3660.13437	0.13601
3659.17016	0.13546
3658.20595	0.12981
3657.24175	0.10904
3656.27754	0.08847
3655.31333	0.09799
3654.34912	0.12192
3653.38491	0.13019
3652.42071	0.11752
3651.45650	0.08987
3650.49229	0.05847
3649.52808	0.03965
3648.56387	0.04512
3647.59966	0.06525
3646.63546	0.08743
3645.67125	0.11067
3644.70704	0.12678
3643.74283	0.13104
3642.77862	0.13009
3641.81442	0.12967
3640.85021	0.13106
3639.88600	0.13189
3638.92179	0.13062
3637.95758	0.12927
3636.99337	0.13004
3636.02917	0.13071
3635.06496	0.12634
3634.10075	0.11914
3633.13654	0.11843
3632.17233	0.12256
3631.20812	0.11221
3630.24392	0.07343
3629.27971	0.03153
3628.31550	0.03364
3627.35129	0.07471
3626.38708	0.10925
3625.42288	0.12251
3624.45867	0.12625
3623.49446	0.12699
3622.53025	0.12494
3621.56604	0.11731
3620.60183	0.09951
3619.63763	0.08189
3618.67342	0.08166
3617.70921	0.09416
3616.74500	0.10682
3615.78079	0.11287
3614.81659	0.11020
3613.85238	0.10232
3612.88817	0.09419
3611.92396	0.09662
3610.95975	0.10377
3609.99554	0.09404
3609.03134	0.08091
3608.06713	0.08729
3607.10292	0.10028
3606.13871	0.10979
3605.17450	0.11777
3604.21029	0.12100
3603.24609	0.11983
3602.28188	0.11694
3601.31767	0.11322
3600.35346	0.11155
3599.38925	0.11250
3598.42505	0.11341
3597.46084	0.11337
3596.49663	0.11023
3595.53242	0.10528
3594.56821	0.10444
3593.60400	0.10671
3592.63980	0.10970
3591.67559	0.11387
3590.71138	0.11373
3589.74717	0.10172
3588.78296	0.08439
3587.81876	0.07681
3586.85455	0.07976
3585.89034	0.08998
3584.92613	0.10380
3583.96192	0.11130
3582.99771	0.11265
3582.03351	0.11329
3581.06930	0.11287
3580.10509	0.11142
3579.14088	0.11101
3578.17667	0.11133
3577.21246	0.11089
3576.24826	0.11057
3575.28405	0.11039
3574.31984	0.10999
3573.35563	0.11036
3572.39142	0.11081
3571.42722	0.11002
3570.46301	0.10748
3569.49880	0.09948
3568.53459	0.08443
3567.57038	0.07281
3566.60617	0.07321
3565.64197	0.08245
3564.67776	0.09351
3563.71355	0.09978
3562.74934	0.10192
3561.78513	0.10300
3560.82093	0.10247
3559.85672	0.10196
3558.89251	0.10328
3557.92830	0.10450
3556.96409	0.10442
3555.99988	0.10422
3555.03568	0.10344
3554.07147	0.10094
3553.10726	0.09709
3552.14305	0.09455
3551.17884	0.09617
3550.21463	0.09929
3549.25043	0.09956
3548.28622	0.09585
3547.32201	0.09041
3546.35780	0.08725
3545.39359	0.08729
3544.42939	0.08934
3543.46518	0.09242
3542.50097	0.09512
3541.53676	0.09655
3540.57255	0.09677
3539.60834	0.09634
3538.64414	0.09559
3537.67993	0.09383
3536.71572	0.09127
3535.75151	0.09045
3534.78730	0.09173
3533.82310	0.09258
3532.85889	0.09198
3531.89468	0.09037
3530.93047	0.08826
3529.96626	0.08578
3529.00205	0.08314
3528.03785	0.08120
3527.07364	0.08049
3526.10943	0.08071
3525.14522	0.08070
3524.18101	0.07923
3523.21680	0.07752
3522.25260	0.07815
3521.28839	0.08036
3520.32418	0.08115
3519.35997	0.08024
3518.39576	0.07933
3517.43156	0.07898
3516.46735	0.07871
3515.50314	0.07813
3514.53893	0.07717
3513.57472	0.07594
3512.61051	0.07458
3511.64631	0.07296
3510.68210	0.07035
3509.71789	0.06736
3508.75368	0.06670
3507.78947	0.06833
3506.82527	0.06896
3505.86106	0.06742
3504.89685	0.06429
3503.93264	0.06034
3502.96843	0.05788
3502.00422	0.05841
3501.04002	0.06014
3500.07581	0.06090
3499.11160	0.06057
3498.14739	0.05943
3497.18318	0.05746
3496.21898	0.05558
3495.25477	0.05474
3494.29056	0.05454
3493.32635	0.05413
3492.36214	0.05327
3491.39793	0.05214
3490.43373	0.05095
3489.46952	0.04926
3488.50531	0.04699
3487.54110	0.04558
3486.57689	0.04538
3485.61268	0.04514
3484.64848	0.04439
3483.68427	0.04273
3482.72006	0.04000
3481.75585	0.03808
3480.79164	0.03814
3479.82744	0.03895
3478.86323	0.03942
3477.89902	0.03930
3476.93481	0.03857
3475.97060	0.03734
3475.00639	0.03615
3474.04219	0.03576
3473.07798	0.03590
3472.11377	0.03576
3471.14956	0.03532
3470.18535	0.03495
3469.22115	0.03475
3468.25694	0.03426
3467.29273	0.03342
3466.32852	0.03299
3465.36431	0.03318
3464.40010	0.03310
3463.43590	0.03224
3462.47169	0.03131
3461.50748	0.03118
3460.54327	0.03168
3459.57906	0.03206
3458.61485	0.03206
3457.65065	0.03187
3456.68644	0.03160
3455.72223	0.03133
3454.75802	0.03116
3453.79381	0.03098
3452.82961	0.03069
3451.86540	0.03036
3450.90119	0.02997
3449.93698	0.02940
3448.97277	0.02792
3448.00856	0.02472
3447.04436	0.02214
3446.08015	0.02308
3445.11594	0.02553
3444.15173	0.02633
3443.18752	0.02554
3442.22332	0.02495
3441.25911	0.02565
3440.29490	0.02669
3439.33069	0.02721
3438.36648	0.02760
3437.40227	0.02809
3436.43807	0.02870
3435.47386	0.02939
3434.50965	0.03015
3433.54544	0.03089
3432.58123	0.03159
3431.61702	0.03230
3430.65282	0.03323
3429.68861	0.03444
3428.72440	0.03550
3427.76019	0.03640
3426.79598	0.03749
3425.83178	0.03864
3424.86757	0.03954
3423.90336	0.04003
3422.93915	0.04012
3421.97494	0.03986
3421.01073	0.03959
3420.04653	0.04024
3419.08232	0.04206
3418.11811	0.04384
3417.15390	0.04481
3416.18969	0.04537
3415.22549	0.04585
3414.26128	0.04629
3413.29707	0.04668
3412.33286	0.04707
3411.36865	0.04749
3410.40444	0.04784
3409.44024	0.04806
3408.47603	0.04822
3407.51182	0.04843
3406.54761	0.04866
3405.58340	0.04888
3404.61919	0.04898
3403.65499	0.04901
3402.69078	0.04920
3401.72657	0.04950
3400.76236	0.04983
3399.79815	0.05016
3398.83395	0.05022
3397.86974	0.04986
3396.90553	0.04976
3395.94132	0.05048
3394.97711	0.05122
3394.01290	0.05109
3393.04870	0.05053
3392.08449	0.05080
3391.12028	0.05189
3390.15607	0.05271
3389.19186	0.05302
3388.22766	0.05319
3387.26345	0.05324
3386.29924	0.05304
3385.33503	0.05276
3384.37082	0.05280
3383.40661	0.05324
3382.44241	0.05378
3381.47820	0.05417
3380.51399	0.05439
3379.54978	0.05453
3378.58557	0.05462
3377.62137	0.05476
3376.65716	0.05495
3375.69295	0.05512
3374.72874	0.05522
3373.76453	0.05531
3372.80032	0.05544
3371.83612	0.05559
3370.87191	0.05573
3369.90770	0.05579
3368.94349	0.05568
3367.97928	0.05550
3367.01507	0.05538
3366.05087	0.05529
3365.08666	0.05539
3364.12245	0.05582
3363.15824	0.05620
3362.19403	0.05626
3361.22983	0.05638
3360.26562	0.05674
3359.30141	0.05708
3358.33720	0.05730
3357.37299	0.05731
3356.40878	0.05719
3355.44458	0.05727
3354.48037	0.05768
3353.51616	0.05818
3352.55195	0.05855
3351.58774	0.05876
3350.62354	0.05891
3349.65933	0.05907
3348.69512	0.05924
3347.73091	0.05938
3346.76670	0.05953
3345.80249	0.05975
3344.83829	0.06000
3343.87408	0.06018
3342.90987	0.06030
3341.94566	0.06044
3340.98145	0.06057
3340.01724	0.06073
3339.05304	0.06089
3338.08883	0.06078
3337.12462	0.06042
3336.16041	0.06041
3335.19620	0.06079
3334.23200	0.06123
3333.26779	0.06169
3332.30358	0.06207
3331.33937	0.06232
3330.37516	0.06246
3329.41095	0.06254
3328.44675	0.06257
3327.48254	0.06255
3326.51833	0.06261
3325.55412	0.06280
3324.58991	0.06299
3323.62571	0.06319
3322.66150	0.06349
3321.69729	0.06382
3320.73308	0.06408
3319.76887	0.06424
3318.80466	0.06437
3317.84046	0.06453
3316.87625	0.06475
3315.91204	0.06499
3314.94783	0.06509
3313.98362	0.06495
3313.01941	0.06489
3312.05521	0.06518
3311.09100	0.06555
3310.12679	0.06560
3309.16258	0.06543
3308.19837	0.06566
3307.23417	0.06640
3306.26996	0.06705
3305.30575	0.06734
3304.34154	0.06746
3303.37733	0.06755
3302.41312	0.06773
3301.44892	0.06800
3300.48471	0.06826
3299.52050	0.06844
3298.55629	0.06847
3297.59208	0.06848
3296.62788	0.06875
3295.66367	0.06918
3294.69946	0.06947
3293.73525	0.06953
3292.77104	0.06952
3291.80683	0.06967
3290.84263	0.07010
3289.87842	0.07058
3288.91421	0.07088
3287.95000	0.07120
3286.98579	0.07165
3286.02158	0.07202
3285.05738	0.07223
3284.09317	0.07237
3283.12896	0.07262
3282.16475	0.07303
3281.20054	0.07336
3280.23634	0.07356
3279.27213	0.07386
3278.30792	0.07420
3277.34371	0.07417
3276.37950	0.07406
3275.41529	0.07430
3274.45109	0.07448
3273.48688	0.07463
3272.52267	0.07529
3271.55846	0.07610
3270.59425	0.07658
3269.63005	0.07692
3268.66584	0.07722
3267.70163	0.07749
3266.73742	0.07773
3265.77321	0.07791
3264.80900	0.07811
3263.84480	0.07848
3262.88059	0.07892
3261.91638	0.07923
3260.95217	0.07941
3259.98796	0.07965
3259.02376	0.08001
3258.05955	0.08028
3257.09534	0.08052
3256.13113	0.08085
3255.16692	0.08099
3254.20271	0.08103
3253.23851	0.08156
3252.27430	0.08239
3251.31009	0.08300
3250.34588	0.08342
3249.38167	0.08378
3248.41746	0.08412
3247.45326	0.08442
3246.48905	0.08448
3245.52484	0.08427
3244.56063	0.08446
3243.59642	0.08538
3242.63222	0.08632
3241.66801	0.08688
3240.70380	0.08728
3239.73959	0.08774
3238.77538	0.08824
3237.81117	0.08860
3236.84697	0.08888
3235.88276	0.08941
3234.91855	0.09009
3233.95434	0.09053
3232.99013	0.09086
3232.02593	0.09141
3231.06172	0.09205
3230.09751	0.09258
3229.13330	0.09310
3228.16909	0.09359
3227.20488	0.09412
3226.24068	0.09484
3225.27647	0.09565
3224.31226	0.09634
3223.34805	0.09689
3222.38384	0.09736
3221.41963	0.09777
3220.45543	0.09807
3219.49122	0.09849
3218.52701	0.09935
3217.56280	0.10036
3216.59859	0.10115
3215.63439	0.10163
3214.67018	0.10189
3213.70597	0.10246
3212.74176	0.10359
3211.77755	0.10463
3210.81334	0.10513
3209.84914	0.10551
3208.88493	0.10633
3207.92072	0.10746
3206.95651	0.10845
3205.99230	0.10926
3205.02810	0.11004
3204.06389	0.11085
3203.09968	0.11169
3202.13547	0.11252
3201.17126	0.11331
3200.20705	0.11408
3199.24285	0.11470
3198.27864	0.11514
3197.31443	0.11580
3196.35022	0.11690
3195.38601	0.11812
3194.42180	0.11918
3193.45760	0.12008
3192.49339	0.12086
3191.52918	0.12160
3190.56497	0.12234
3189.60076	0.12308
3188.63656	0.12382
3187.67235	0.12458
3186.70814	0.12524
3185.74393	0.12574
3184.77972	0.12636
3183.81551	0.12726
3182.85131	0.12817
3181.88710	0.12896
3180.92289	0.12971
3179.95868	0.13029
3178.99447	0.13050
3178.03027	0.13081
3177.06606	0.13178
3176.10185	0.13299
3175.13764	0.13389
3174.17343	0.13459
3173.20922	0.13531
3172.24502	0.13602
3171.28081	0.13669
3170.31660	0.13735
3169.35239	0.13802
3168.38818	0.13870
3167.42397	0.13936
3166.45977	0.14001
3165.49556	0.14068
3164.53135	0.14137
3163.56714	0.14205
3162.60293	0.14277
3161.63873	0.14348
3160.67452	0.14417
3159.71031	0.14484
3158.74610	0.14545
3157.78189	0.14604
3156.81768	0.14669
3155.85348	0.14740
3154.88927	0.14809
3153.92506	0.14876
3152.96085	0.14945
3151.99664	0.15012
3151.03244	0.15077
3150.06823	0.15132
3149.10402	0.15184
3148.13981	0.15252
3147.17560	0.15331
3146.21139	0.15405
3145.24719	0.15475
3144.28298	0.15541
3143.31877	0.15600
3142.35456	0.15657
3141.39035	0.15708
3140.42615	0.15756
3139.46194	0.15830
3138.49773	0.15924
3137.53352	0.16006
3136.56931	0.16077
3135.60510	0.16144
3134.64090	0.16187
3133.67669	0.16200
3132.71248	0.16224
3131.74827	0.16293
3130.78406	0.16397
3129.81985	0.16506
3128.85565	0.16590
3127.89144	0.16639
3126.92723	0.16680
3125.96302	0.16742
3124.99881	0.16820
3124.03461	0.16857
3123.07040	0.16835
3122.10619	0.16868
3121.14198	0.17011
3120.17777	0.17139
3119.21356	0.17193
3118.24936	0.17248
3117.28515	0.17321
3116.32094	0.17374
3115.35673	0.17415
3114.39252	0.17445
3113.42832	0.17477
3112.46411	0.17575
3111.49990	0.17712
3110.53569	0.17812
3109.57148	0.17878
3108.60727	0.17935
3107.64307	0.17989
3106.67886	0.18041
3105.71465	0.18059
3104.75044	0.18042
3103.78623	0.18079
3102.82202	0.18185
3101.85782	0.18269
3100.89361	0.18325
3099.92940	0.18399
3098.96519	0.18489
3098.00098	0.18562
3097.03678	0.18573
3096.07257	0.18521
3095.10836	0.18525
3094.14415	0.18668
3093.17994	0.18839
3092.21573	0.18944
3091.25153	0.19005
3090.28732	0.19055
3089.32311	0.19106
3088.35890	0.19147
3087.39469	0.19130
3086.43049	0.19059
3085.46628	0.19079
3084.50207	0.19232
3083.53786	0.19364
3082.57365	0.19418
3081.60944	0.19450
3080.64524	0.19482
3079.68103	0.19517
3078.71682	0.19553
3077.75261	0.19557
3076.78840	0.19551
3075.82419	0.19621
3074.85999	0.19739
3073.89578	0.19817
3072.93157	0.19857
3071.96736	0.19894
3071.00315	0.19931
3070.03895	0.19965
3069.07474	0.19969
3068.11053	0.19902
3067.14632	0.19845
3066.18211	0.19923
3065.21790	0.20046
3064.25370	0.20118
3063.28949	0.20186
3062.32528	0.20258
3061.36107	0.20305
3060.39686	0.20337
3059.43266	0.20346
3058.46845	0.20307
3057.50424	0.20277
3056.54003	0.20339
3055.57582	0.20462
3054.61161	0.20565
3053.64741	0.20627
3052.68320	0.20668
3051.71899	0.20707
3050.75478	0.20742
3049.79057	0.20753
3048.82636	0.20745
3047.86216	0.20777
3046.89795	0.20862
3045.93374	0.20941
3044.96953	0.20989
3044.00532	0.21024
3043.04112	0.21055
3042.07691	0.21086
3041.11270	0.21115
3040.14849	0.21136
3039.18428	0.21149
3038.22007	0.21171
3037.25587	0.21210
3036.29166	0.21245
3035.32745	0.21266
3034.36324	0.21290
3033.39903	0.21325
3032.43483	0.21343
3031.47062	0.21357
3030.50641	0.21410
3029.54220	0.21490
3028.57799	0.21560
3027.61378	0.21620
3026.64958	0.21666
3025.68537	0.21706
3024.72116	0.21757
3023.75695	0.21808
3022.79274	0.21847
3021.82853	0.21882
3020.86433	0.21912
3019.90012	0.21883
3018.93591	0.21722
3017.97170	0.21513
3017.00749	0.21443
3016.04329	0.21545
3015.07908	0.21713
3014.11487	0.21863
3013.15066	0.21964
3012.18645	0.22038
3011.22224	0.22108
3010.25804	0.22163
3009.29383	0.22210
3008.32962	0.22255
3007.36541	0.22288
3006.40120	0.22310
3005.43700	0.22322
3004.47279	0.22333
3003.50858	0.22357
3002.54437	0.22391
3001.58016	0.22422
3000.61595	0.22438
2999.65175	0.22442
2998.68754	0.22449
2997.72333	0.22467
2996.75912	0.22481
2995.79491	0.22482
2994.83071	0.22475
2993.86650	0.22471
2992.90229	0.22475
2991.93808	0.22477
2990.97387	0.22467
2990.00966	0.22426
2989.04546	0.22371
2988.08125	0.22355
2987.11704	0.22374
2986.15283	0.22382
2985.18862	0.22366
2984.22441	0.22338
2983.26021	0.22304
2982.29600	0.22266
2981.33179	0.22217
2980.36758	0.22142
2979.40337	0.22042
2978.43917	0.21972
2977.47496	0.21952
2976.51075	0.21925
2975.54654	0.21856
2974.58233	0.21765
2973.61812	0.21669
2972.65392	0.21569
2971.68971	0.21465
2970.72550	0.21344
2969.76129	0.21190
2968.79708	0.21027
2967.83288	0.20913
2966.86867	0.20841
2965.90446	0.20769
2964.94025	0.20698
2963.97604	0.20643
2963.01183	0.20602
2962.04763	0.20573
2961.08342	0.20557
2960.11921	0.20537
2959.15500	0.20499
2958.19079	0.20500
2957.22658	0.20602
2956.26238	0.20743
2955.29817	0.20852
2954.33396	0.20943
2953.36975	0.21034
2952.40554	0.21124
2951.44134	0.21208
2950.47713	0.21276
2949.51292	0.21307
2948.54871	0.21307
2947.58450	0.21335
2946.62029	0.21403
2945.65609	0.21451
2944.69188	0.21458
2943.72767	0.21440
2942.76346	0.21408
2941.79925	0.21366
2940.83505	0.21315
2939.87084	0.21245
2938.90663	0.21143
2937.94242	0.21029
2936.97821	0.20953
2936.01400	0.20903
2935.04980	0.20836
2934.08559	0.20747
2933.12138	0.20655
2932.15717	0.20566
2931.19296	0.20477
2930.22875	0.20387
2929.26455	0.20293
2928.30034	0.20181
2927.33613	0.20072
2926.37192	0.20011
2925.40771	0.19988
2924.44351	0.19961
2923.47930	0.19924
2922.51509	0.19891
2921.55088	0.19860
2920.58667	0.19834
2919.62246	0.19813
2918.65826	0.19797
2917.69405	0.19804
2916.72984	0.19886
2915.76563	0.20085
2914.80142	0.20381
2913.83722	0.20725
2912.87301	0.21076
2911.90880	0.21405
2910.94459	0.21693
2909.98038	0.21935
2909.01617	0.22135
2908.05197	0.22297
2907.08776	0.22431
2906.12355	0.22555
2905.15934	0.22682
2904.19513	0.22804
2903.23092	0.22915
2902.26672	0.23014
2901.30251	0.23106
2900.33830	0.23193
2899.37409	0.23279
2898.40988	0.23360
2897.44568	0.23434
2896.48147	0.23502
2895.51726	0.23572
2894.55305	0.23650
2893.58884	0.23731
2892.62463	0.23805
2891.66043	0.23871
2890.69622	0.23933
2889.73201	0.23994
2888.76780	0.24056
2887.80359	0.24114
2886.83939	0.24164
2885.87518	0.24205
2884.91097	0.24245
2883.94676	0.24289
2882.98255	0.24330
2882.01834	0.24361
2881.05414	0.24382
2880.08993	0.24397
2879.12572	0.24410
2878.16151	0.24423
2877.19730	0.24434
2876.23310	0.24439
2875.26889	0.24440
2874.30468	0.24443
2873.34047	0.24453
2872.37626	0.24465
2871.41205	0.24481
2870.44785	0.24502
2869.48364	0.24529
2868.51943	0.24556
2867.55522	0.24580
2866.59101	0.24598
2865.62680	0.24615
2864.66260	0.24630
2863.69839	0.24640
2862.73418	0.24645
2861.76997	0.24647
2860.80576	0.24640
2859.84156	0.24626
2858.87735	0.24605
2857.91314	0.24579
2856.94893	0.24549
2855.98472	0.24515
2855.02051	0.24474
2854.05631	0.24425
2853.09210	0.24364
2852.12789	0.24294
2851.16368	0.24229
2850.19947	0.24199
2849.23527	0.24246
2848.27106	0.24402
2847.30685	0.24660
2846.34264	0.24971
2845.37843	0.25279
2844.41422	0.25553
2843.45002	0.25784
2842.48581	0.25977
2841.52160	0.26139
2840.55739	0.26279
2839.59318	0.26400
2838.62897	0.26506
2837.66477	0.26601
2836.70056	0.26687
2835.73635	0.26766
2834.77214	0.26840
2833.80793	0.26909
2832.84373	0.26973
2831.87952	0.27031
2830.91531	0.27086
2829.95110	0.27137
2828.98689	0.27187
2828.02268	0.27234
2827.05848	0.27279
2826.09427	0.27323
2825.13006	0.27368
2824.16585	0.27412
2823.20164	0.27456
2822.23744	0.27500
2821.27323	0.27541
2820.30902	0.27578
2819.34481	0.27613
2818.38060	0.27650
2817.41639	0.27691
2816.45219	0.27733
2815.48798	0.27770
2814.52377	0.27806
2813.55956	0.27845
2812.59535	0.27883
2811.63114	0.27920
2810.66694	0.27955
2809.70273	0.27990
2808.73852	0.28024
2807.77431	0.28061
2806.81010	0.28101
2805.84590	0.28140
2804.88169	0.28179
2803.91748	0.28217
2802.95327	0.28251
2801.98906	0.28285
2801.02485	0.28321
2800.06065	0.28359
2799.09644	0.28399
2798.13223	0.28440
2797.16802	0.28479
2796.20381	0.28514
2795.23961	0.28551
2794.27540	0.28591
2793.31119	0.28630
2792.34698	0.28666
2791.38277	0.28702
2790.41856	0.28736
2789.45436	0.28769
2788.49015	0.28807
2787.52594	0.28847
2786.56173	0.28885
2785.59752	0.28921
2784.63331	0.28955
2783.66911	0.28990
2782.70490	0.29026
2781.74069	0.29061
2780.77648	0.29094
2779.81227	0.29128
2778.84807	0.29162
2777.88386	0.29194
2776.91965	0.29226
2775.95544	0.29257
2774.99123	0.29288
2774.02702	0.29320
2773.06282	0.29350
2772.09861	0.29378
2771.13440	0.29406
2770.17019	0.29436
2769.20598	0.29468
2768.24178	0.29500
2767.27757	0.29529
2766.31336	0.29557
2765.34915	0.29585
2764.38494	0.29613
2763.42073	0.29642
2762.45653	0.29670
2761.49232	0.29695
2760.52811	0.29720
2759.56390	0.29747
2758.59969	0.29775
2757.63549	0.29804
2756.67128	0.29833
2755.70707	0.29860
2754.74286	0.29888
2753.77865	0.29916
2752.81444	0.29941
2751.85024	0.29964
2750.88603	0.29991
2749.92182	0.30020
2748.95761	0.30048
2747.99340	0.30073
2747.02919	0.30098
2746.06499	0.30124
2745.10078	0.30151
2744.13657	0.30177
2743.17236	0.30203
2742.20815	0.30229
2741.24395	0.30255
2740.27974	0.30284
2739.31553	0.30314
2738.35132	0.30340
2737.38711	0.30363
2736.42290	0.30386
2735.45870	0.30411
2734.49449	0.30438
2733.53028	0.30466
2732.56607	0.30494
2731.60186	0.30519
2730.63766	0.30542
2729.67345	0.30565
2728.70924	0.30590
2727.74503	0.30615
2726.78082	0.30643
2725.81661	0.30673
2724.85241	0.30702
2723.88820	0.30727
2722.92399	0.30750
2721.95978	0.30776
2720.99557	0.30804
2720.03136	0.30831
2719.06716	0.30859
2718.10295	0.30889
2717.13874	0.30920
2716.17453	0.30950
2715.21032	0.30975
2714.24612	0.31001
2713.28191	0.31026
2712.31770	0.31049
2711.35349	0.31074
2710.38928	0.31102
2709.42507	0.31130
2708.46087	0.31157
2707.49666	0.31184
2706.53245	0.31212
2705.56824	0.31240
2704.60403	0.31267
2703.63983	0.31293
2702.67562	0.31317
2701.71141	0.31341
2700.74720	0.31366
2699.78299	0.31392
2698.81878	0.31417
2697.85458	0.31445
2696.89037	0.31473
2695.92616	0.31500
2694.96195	0.31525
2693.99774	0.31551
2693.03353	0.31577
2692.06933	0.31606
2691.10512	0.31633
2690.14091	0.31657
2689.17670	0.31681
2688.21249	0.31706
2687.24829	0.31731
2686.28408	0.31755
2685.31987	0.31780
2684.35566	0.31805
2683.39145	0.31830
2682.42724	0.31854
2681.46304	0.31879
2680.49883	0.31907
2679.53462	0.31934
2678.57041	0.31958
2677.60620	0.31982
2676.64200	0.32007
2675.67779	0.32032
2674.71358	0.32055
2673.74937	0.32078
2672.78516	0.32103
2671.82095	0.32129
2670.85675	0.32154
2669.89254	0.32178
2668.92833	0.32200
2667.96412	0.32221
2666.99991	0.32244
2666.03570	0.32270
2665.07150	0.32298
2664.10729	0.32326
2663.14308	0.32351
2662.17887	0.32374
2661.21466	0.32399
2660.25046	0.32424
2659.28625	0.32450
2658.32204	0.32474
2657.35783	0.32495
2656.39362	0.32518
2655.42941	0.32543
2654.46521	0.32569
2653.50100	0.32594
2652.53679	0.32620
2651.57258	0.32646
2650.60837	0.32672
2649.64417	0.32696
2648.67996	0.32720
2647.71575	0.32744
2646.75154	0.32766
2645.78733	0.32790
2644.82312	0.32814
2643.85892	0.32838
2642.89471	0.32863
2641.93050	0.32887
2640.96629	0.32911
2640.00208	0.32933
2639.03788	0.32955
2638.07367	0.32978
2637.10946	0.33002
2636.14525	0.33029
2635.18104	0.33056
2634.21683	0.33080
2633.25263	0.33103
2632.28842	0.33126
2631.32421	0.33147
2630.36000	0.33167
2629.39579	0.33188
2628.43158	0.33214
2627.46738	0.33242
2626.50317	0.33268
2625.53896	0.33293
2624.57475	0.33317
2623.61054	0.33340
2622.64634	0.33363
2621.68213	0.33385
2620.71792	0.33406
2619.75371	0.33429
2618.78950	0.33451
2617.82529	0.33474
2616.86109	0.33497
2615.89688	0.33521
2614.93267	0.33544
2613.96846	0.33566
2613.00425	0.33588
2612.04005	0.33610
2611.07584	0.33633
2610.11163	0.33657
2609.14742	0.33681
2608.18321	0.33705
2607.21900	0.33729
2606.25480	0.33752
2605.29059	0.33775
2604.32638	0.33797
2603.36217	0.33818
2602.39796	0.33840
2601.43375	0.33863
2600.46955	0.33886
2599.50534	0.33908
2598.54113	0.33930
2597.57692	0.33953
2596.61271	0.33980
2595.64851	0.34005
2594.68430	0.34024
2593.72009	0.34042
2592.75588	0.34062
2591.79167	0.34084
2590.82746	0.34108
2589.86326	0.34132
2588.89905	0.34155
2587.93484	0.34178
2586.97063	0.34199
2586.00642	0.34220
2585.04222	0.34242
2584.07801	0.34267
2583.11380	0.34292
2582.14959	0.34314
2581.18538	0.34335
2580.22117	0.34357
2579.25697	0.34379
2578.29276	0.34402
2577.32855	0.34424
2576.36434	0.34444
2575.40013	0.34464
2574.43592	0.34486
2573.47172	0.34509
2572.50751	0.34531
2571.54330	0.34552
2570.57909	0.34572
2569.61488	0.34595
2568.65068	0.34618
2567.68647	0.34641
2566.72226	0.34661
2565.75805	0.34683
2564.79384	0.34707
2563.82963	0.34730
2562.86543	0.34748
2561.90122	0.34765
2560.93701	0.34785
2559.97280	0.34806
2559.00859	0.34828
2558.04439	0.34850
2557.08018	0.34872
2556.11597	0.34893
2555.15176	0.34914
2554.18755	0.34935
2553.22334	0.34957
2552.25914	0.34979
2551.29493	0.35000
2550.33072	0.35022
2549.36651	0.35045
2548.40230	0.35066
2547.43809	0.35086
2546.47389	0.35107
2545.50968	0.35129
2544.54547	0.35151
2543.58126	0.35170
2542.61705	0.35191
2541.65285	0.35213
2540.68864	0.35236
2539.72443	0.35256
2538.76022	0.35276
2537.79601	0.35298
2536.83180	0.35322
2535.86760	0.35346
2534.90339	0.35369
2533.93918	0.35390
2532.97497	0.35411
2532.01076	0.35433
2531.04656	0.35457
2530.08235	0.35482
2529.11814	0.35504
2528.15393	0.35523
2527.18972	0.35543
2526.22551	0.35565
2525.26131	0.35588
2524.29710	0.35611
2523.33289	0.35631
2522.36868	0.35648
2521.40447	0.35668
2520.44026	0.35690
2519.47606	0.35713
2518.51185	0.35737
2517.54764	0.35761
2516.58343	0.35783
2515.61922	0.35802
2514.65502	0.35821
2513.69081	0.35842
2512.72660	0.35864
2511.76239	0.35886
2510.79818	0.35907
2509.83397	0.35926
2508.86977	0.35944
2507.90556	0.35964
2506.94135	0.35985
2505.97714	0.36005
2505.01293	0.36024
2504.04873	0.36044
2503.08452	0.36064
2502.12031	0.36086
2501.15610	0.36109
2500.19189	0.36131
2499.22768	0.36150
2498.26348	0.36170
2497.29927	0.36190
2496.33506	0.36210
2495.37085	0.36231
2494.40664	0.36252
2493.44244	0.36272
2492.47823	0.36292
2491.51402	0.36312
2490.54981	0.36333
2489.58560	0.36351
2488.62139	0.36368
2487.65719	0.36390
2486.69298	0.36413
2485.72877	0.36435
2484.76456	0.36455
2483.80035	0.36476
2482.83614	0.36498
2481.87194	0.36520
2480.90773	0.36541
2479.94352	0.36560
2478.97931	0.36578
2478.01510	0.36596
2477.05090	0.36614
2476.08669	0.36634
2475.12248	0.36656
2474.15827	0.36678
2473.19406	0.36700
2472.22985	0.36721
2471.26565	0.36741
2470.30144	0.36762
2469.33723	0.36784
2468.37302	0.36806
2467.40881	0.36827
2466.44461	0.36848
2465.48040	0.36868
2464.51619	0.36888
2463.55198	0.36909
2462.58777	0.36929
2461.62356	0.36949
2460.65936	0.36969
2459.69515	0.36988
2458.73094	0.37009
2457.76673	0.37030
2456.80252	0.37050
2455.83831	0.37070
2454.87411	0.37090
2453.90990	0.37112
2452.94569	0.37133
2451.98148	0.37154
2451.01727	0.37173
2450.05307	0.37192
2449.08886	0.37211
2448.12465	0.37232
2447.16044	0.37255
2446.19623	0.37277
2445.23202	0.37298
2444.26782	0.37317
2443.30361	0.37336
2442.33940	0.37355
2441.37519	0.37375
2440.41098	0.37394
2439.44678	0.37413
2438.48257	0.37433
2437.51836	0.37454
2436.55415	0.37474
2435.58994	0.37492
2434.62573	0.37512
2433.66153	0.37533
2432.69732	0.37553
2431.73311	0.37572
2430.76890	0.37592
2429.80469	0.37612
2428.84048	0.37633
2427.87628	0.37654
2426.91207	0.37674
2425.94786	0.37696
2424.98365	0.37718
2424.01944	0.37737
2423.05524	0.37755
2422.09103	0.37775
2421.12682	0.37796
2420.16261	0.37818
2419.19840	0.37841
2418.23419	0.37863
2417.26999	0.37882
2416.30578	0.37900
2415.34157	0.37919
2414.37736	0.37940
2413.41315	0.37962
2412.44895	0.37981
2411.48474	0.37998
2410.52053	0.38017
2409.55632	0.38038
2408.59211	0.38058
2407.62790	0.38078
2406.66370	0.38098
2405.69949	0.38116
2404.73528	0.38134
2403.77107	0.38154
2402.80686	0.38173
2401.84265	0.38191
2400.87845	0.38213
2399.91424	0.38235
2398.95003	0.38254
2397.98582	0.38273
2397.02161	0.38292
2396.05741	0.38312
2395.09320	0.38330
2394.12899	0.38349
2393.16478	0.38368
2392.20057	0.38388
2391.23636	0.38407
2390.27216	0.38425
2389.30795	0.38441
2388.34374	0.38455
2387.37953	0.38468
2386.41532	0.38481
2385.45112	0.38492
2384.48691	0.38498
2383.52270	0.38496
2382.55849	0.38486
2381.59428	0.38464
2380.63007	0.38429
2379.66587	0.38378
2378.70166	0.38311
2377.73745	0.38227
2376.77324	0.38123
2375.80903	0.38000
2374.84483	0.37857
2373.88062	0.37697
2372.91641	0.37521
2371.95220	0.37333
2370.98799	0.37135
2370.02378	0.36933
2369.05958	0.36730
2368.09537	0.36535
2367.13116	0.36356
2366.16695	0.36196
2365.20274	0.36060
2364.23853	0.35952
2363.27433	0.35882
2362.31012	0.35851
2361.34591	0.35860
2360.38170	0.35911
2359.41749	0.36003
2358.45329	0.36140
2357.48908	0.36320
2356.52487	0.36536
2355.56066	0.36782
2354.59645	0.37060
2353.63224	0.37367
2352.66804	0.37691
2351.70383	0.38023
2350.73962	0.38349
2349.77541	0.38612
2348.81120	0.38709
2347.84700	0.38602
2346.88279	0.38379
2345.91858	0.38140
2344.95437	0.37924
2343.99016	0.37740
2343.02595	0.37586
2342.06175	0.37463
2341.09754	0.37372
2340.13333	0.37313
2339.16912	0.37286
2338.20491	0.37279
2337.24070	0.37280
2336.27650	0.37296
2335.31229	0.37336
2334.34808	0.37388
2333.38387	0.37445
2332.41966	0.37510
2331.45546	0.37589
2330.49125	0.37679
2329.52704	0.37777
2328.56283	0.37882
2327.59862	0.37994
2326.63441	0.38106
2325.67021	0.38218
2324.70600	0.38330
2323.74179	0.38443
2322.77758	0.38558
2321.81337	0.38672
2320.84917	0.38780
2319.88496	0.38883
2318.92075	0.38984
2317.95654	0.39083
2316.99233	0.39175
2316.02812	0.39261
2315.06392	0.39344
2314.09971	0.39423
2313.13550	0.39496
2312.17129	0.39564
2311.20708	0.39627
2310.24287	0.39687
2309.27867	0.39741
2308.31446	0.39792
2307.35025	0.39841
2306.38604	0.39890
2305.42183	0.39935
2304.45763	0.39974
2303.49342	0.40008
2302.52921	0.40042
2301.56500	0.40076
2300.60079	0.40109
2299.63658	0.40139
2298.67238	0.40165
2297.70817	0.40189
2296.74396	0.40215
2295.77975	0.40243
2294.81554	0.40270
2293.85134	0.40293
2292.88713	0.40315
2291.92292	0.40339
2290.95871	0.40364
2289.99450	0.40389
2289.03029	0.40414
2288.06609	0.40437
2287.10188	0.40461
2286.13767	0.40486
2285.17346	0.40510
2284.20925	0.40532
2283.24504	0.40551
2282.28084	0.40568
2281.31663	0.40587
2280.35242	0.40607
2279.38821	0.40625
2278.42400	0.40642
2277.45980	0.40659
2276.49559	0.40678
2275.53138	0.40695
2274.56717	0.40712
2273.60296	0.40731
2272.63875	0.40749
2271.67455	0.40766
2270.71034	0.40785
2269.74613	0.40804
2268.78192	0.40824
2267.81771	0.40845
2266.85351	0.40867
2265.88930	0.40888
2264.92509	0.40908
2263.96088	0.40929
2262.99667	0.40950
2262.03246	0.40971
2261.06826	0.40989
2260.10405	0.41006
2259.13984	0.41025
2258.17563	0.41046
2257.21142	0.41066
2256.24722	0.41083
2255.28301	0.41097
2254.31880	0.41113
2253.35459	0.41134
2252.39038	0.41156
2251.42617	0.41176
2250.46197	0.41192
2249.49776	0.41205
2248.53355	0.41217
2247.56934	0.41230
2246.60513	0.41247
2245.64092	0.41264
2244.67672	0.41282
2243.71251	0.41301
2242.74830	0.41317
2241.78409	0.41333
2240.81988	0.41350
2239.85568	0.41369
2238.89147	0.41385
2237.92726	0.41401
2236.96305	0.41417
2235.99884	0.41434
2235.03463	0.41454
2234.07043	0.41475
2233.10622	0.41492
2232.14201	0.41510
2231.17780	0.41533
2230.21359	0.41558
2229.24939	0.41582
2228.28518	0.41603
2227.32097	0.41624
2226.35676	0.41648
2225.39255	0.41673
2224.42834	0.41696
2223.46414	0.41712
2222.49993	0.41726
2221.53572	0.41743
2220.57151	0.41761
2219.60730	0.41775
2218.64309	0.41786
2217.67889	0.41799
2216.71468	0.41817
2215.75047	0.41837
2214.78626	0.41855
2213.82205	0.41873
2212.85785	0.41890
2211.89364	0.41909
2210.92943	0.41928
2209.96522	0.41945
2209.00101	0.41962
2208.03680	0.41981
2207.07260	0.42003
2206.10839	0.42023
2205.14418	0.42042
2204.17997	0.42059
2203.21576	0.42076
2202.25156	0.42096
2201.28735	0.42114
2200.32314	0.42132
2199.35893	0.42151
2198.39472	0.42173
2197.43051	0.42195
2196.46631	0.42218
2195.50210	0.42239
2194.53789	0.42258
2193.57368	0.42275
2192.60947	0.42294
2191.64526	0.42314
2190.68106	0.42334
2189.71685	0.42353
2188.75264	0.42371
2187.78843	0.42389
2186.82422	0.42409
2185.86002	0.42428
2184.89581	0.42447
2183.93160	0.42466
2182.96739	0.42487
2182.00318	0.42508
2181.03897	0.42528
2180.07477	0.42545
2179.11056	0.42564
2178.14635	0.42585
2177.18214	0.42606
2176.21793	0.42625
2175.25373	0.42645
2174.28952	0.42664
2173.32531	0.42681
2172.36110	0.42698
2171.39689	0.42715
2170.43268	0.42729
2169.46848	0.42746
2168.50427	0.42770
2167.54006	0.42794
2166.57585	0.42812
2165.61164	0.42828
2164.64743	0.42849
2163.68323	0.42871
2162.71902	0.42890
2161.75481	0.42908
2160.79060	0.42930
2159.82639	0.42951
2158.86219	0.42967
2157.89798	0.42983
2156.93377	0.43001
2155.96956	0.43022
2155.00535	0.43043
2154.04114	0.43062
2153.07694	0.43080
2152.11273	0.43097
2151.14852	0.43114
2150.18431	0.43132
2149.22010	0.43152
2148.25590	0.43172
2147.29169	0.43190
2146.32748	0.43207
2145.36327	0.43224
2144.39906	0.43245
2143.43485	0.43266
2142.47065	0.43285
2141.50644	0.43300
2140.54223	0.43315
2139.57802	0.43332
2138.61381	0.43351
2137.64961	0.43367
2136.68540	0.43382
2135.72119	0.43400
2134.75698	0.43423
2133.79277	0.43444
2132.82856	0.43460
2131.86436	0.43476
2130.90015	0.43496
2129.93594	0.43517
2128.97173	0.43535
2128.00752	0.43550
2127.04331	0.43566
2126.07911	0.43585
2125.11490	0.43603
2124.15069	0.43621
2123.18648	0.43640
2122.22227	0.43661
2121.25807	0.43679
2120.29386	0.43697
2119.32965	0.43718
2118.36544	0.43738
2117.40123	0.43755
2116.43702	0.43769
2115.47282	0.43783
2114.50861	0.43803
2113.54440	0.43827
2112.58019	0.43849
2111.61598	0.43868
2110.65178	0.43887
2109.68757	0.43907
2108.72336	0.43923
2107.75915	0.43937
2106.79494	0.43954
2105.83073	0.43976
2104.86653	0.43996
2103.90232	0.44012
2102.93811	0.44028
2101.97390	0.44048
2101.00969	0.44068
2100.04548	0.44084
2099.08128	0.44100
2098.11707	0.44120
2097.15286	0.44141
2096.18865	0.44159
2095.22444	0.44174
2094.26024	0.44190
2093.29603	0.44207
2092.33182	0.44227
2091.36761	0.44241
2090.40340	0.44249
2089.43919	0.44265
2088.47499	0.44290
2087.51078	0.44311
2086.54657	0.44330
2085.58236	0.44349
2084.61815	0.44367
2083.65395	0.44384
2082.68974	0.44401
2081.72553	0.44421
2080.76132	0.44441
2079.79711	0.44457
2078.83290	0.44471
2077.86870	0.44488
2076.90449	0.44507
2075.94028	0.44524
2074.97607	0.44540
2074.01186	0.44557
2073.04765	0.44578
2072.08345	0.44599
2071.11924	0.44617
2070.15503	0.44633
2069.19082	0.44649
2068.22661	0.44666
2067.26241	0.44679
2066.29820	0.44676
2065.33399	0.44667
2064.36978	0.44685
2063.40557	0.44731
2062.44136	0.44769
2061.47716	0.44789
2060.51295	0.44805
2059.54874	0.44825
2058.58453	0.44847
2057.62032	0.44866
2056.65612	0.44884
2055.69191	0.44900
2054.72770	0.44915
2053.76349	0.44932
2052.79928	0.44951
2051.83507	0.44968
2050.87087	0.44985
2049.90666	0.45003
2048.94245	0.45021
2047.97824	0.45039
2047.01403	0.45055
2046.04982	0.45071
2045.08562	0.45087
2044.12141	0.45103
2043.15720	0.45116
2042.19299	0.45118
2041.22878	0.45122
2040.26458	0.45153
2039.30037	0.45191
2038.33616	0.45216
2037.37195	0.45234
2036.40774	0.45253
2035.44353	0.45270
2034.47933	0.45285
2033.51512	0.45300
2032.55091	0.45317
2031.58670	0.45336
2030.62249	0.45353
2029.65829	0.45370
2028.69408	0.45387
2027.72987	0.45402
2026.76566	0.45416
2025.80145	0.45434
2024.83724	0.45450
2023.87304	0.45465
2022.90883	0.45480
2021.94462	0.45498
2020.98041	0.45514
2020.01620	0.45523
2019.05199	0.45518
2018.08779	0.45499
2017.12358	0.45484
2016.15937	0.45519
2015.19516	0.45589
2014.23095	0.45638
2013.26675	0.45658
2012.30254	0.45674
2011.33833	0.45689
2010.37412	0.45705
2009.40991	0.45721
2008.44570	0.45735
2007.48150	0.45750
2006.51729	0.45767
2005.55308	0.45787
2004.58887	0.45806
2003.62466	0.45823
2002.66046	0.45837
2001.69625	0.45853
2000.73204	0.45867
1999.76783	0.45879
1998.80362	0.45893
1997.83941	0.45912
1996.87521	0.45932
1995.91100	0.45949
1994.94679	0.45961
1993.98258	0.45939
1993.01837	0.45847
1992.05417	0.45767
1991.08996	0.45830
1990.12575	0.45956
1989.16154	0.46005
1988.19733	0.46013
1987.23312	0.46050
1986.26892	0.46092
1985.30471	0.46117
1984.34050	0.46132
1983.37629	0.46145
1982.41208	0.46158
1981.44787	0.46174
1980.48367	0.46190
1979.51946	0.46206
1978.55525	0.46219
1977.59104	0.46234
1976.62683	0.46251
1975.66263	0.46267
1974.69842	0.46283
1973.73421	0.46299
1972.77000	0.46314
1971.80579	0.46330
1970.84158	0.46345
1969.87738	0.46351
1968.91317	0.46322
1967.94896	0.46254
1966.98475	0.46232
1966.02054	0.46300
1965.05634	0.46389
1964.09213	0.46441
1963.12792	0.46463
1962.16371	0.46474
1961.19950	0.46483
1960.23529	0.46499
1959.27109	0.46520
1958.30688	0.46538
1957.34267	0.46552
1956.37846	0.46561
1955.41425	0.46566
1954.45004	0.46583
1953.48584	0.46613
1952.52163	0.46638
1951.55742	0.46656
1950.59321	0.46673
1949.62900	0.46689
1948.66480	0.46704
1947.70059	0.46706
1946.73638	0.46692
1945.77217	0.46687
1944.80796	0.46690
1943.84375	0.46596
1942.87955	0.46437
1941.91534	0.46465
1940.95113	0.46675
1939.98692	0.46824
1939.02271	0.46870
1938.05851	0.46892
1937.09430	0.46909
1936.13009	0.46924
1935.16588	0.46938
1934.20167	0.46951
1933.23746	0.46964
1932.27326	0.46982
1931.30905	0.47004
1930.34484	0.47023
1929.38063	0.47040
1928.41642	0.47055
1927.45221	0.47068
1926.48801	0.47083
1925.52380	0.47090
1924.55959	0.47036
1923.59538	0.46913
1922.63117	0.46870
1921.66697	0.46984
1920.70276	0.47107
1919.73855	0.47028
1918.77434	0.46706
1917.81013	0.46539
1916.84592	0.46812
1915.88172	0.47147
1914.91751	0.47264
1913.95330	0.47287
1912.98909	0.47304
1912.02488	0.47304
1911.06068	0.47261
1910.09647	0.47210
1909.13226	0.47218
1908.16805	0.47268
1907.20384	0.47327
1906.23963	0.47383
1905.27543	0.47413
1904.31122	0.47423
1903.34701	0.47440
1902.38280	0.47462
1901.41859	0.47483
1900.45438	0.47503
1899.49018	0.47520
1898.52597	0.47533
1897.56176	0.47536
1896.59755	0.47501
1895.63334	0.47439
1894.66914	0.47442
1893.70493	0.47525
1892.74072	0.47594
1891.77651	0.47586
1890.81230	0.47439
1889.84809	0.47244
1888.88389	0.47286
1887.91968	0.47522
1886.95547	0.47673
1885.99126	0.47699
1885.02705	0.47694
1884.06285	0.47709
1883.09864	0.47746
1882.13443	0.47780
1881.17022	0.47798
1880.20601	0.47808
1879.24180	0.47821
1878.27760	0.47842
1877.31339	0.47864
1876.34918	0.47883
1875.38497	0.47899
1874.42076	0.47915
1873.45656	0.47929
1872.49235	0.47931
1871.52814	0.47856
1870.56393	0.47545
1869.59972	0.47113
1868.63551	0.47027
1867.67131	0.47337
1866.70710	0.47668
1865.74289	0.47887
1864.77868	0.48021
1863.81447	0.48085
1862.85026	0.48107
1861.88606	0.48116
1860.92185	0.48129
1859.95764	0.48145
1858.99343	0.48159
1858.02922	0.48180
1857.06502	0.48214
1856.10081	0.48241
1855.13660	0.48261
1854.17239	0.48278
1853.20818	0.48293
1852.24397	0.48310
1851.27977	0.48328
1850.31556	0.48337
1849.35135	0.48300
1848.38714	0.48219
1847.42293	0.48193
1846.45873	0.48130
1845.49452	0.47577
1844.53031	0.46773
1843.56610	0.46882
1842.60189	0.47761
1841.63768	0.48323
1840.67348	0.48471
1839.70927	0.48514
1838.74506	0.48507
1837.78085	0.48464
1836.81664	0.48461
1835.85243	0.48524
1834.88823	0.48579
1833.92402	0.48588
1832.95981	0.48585
1831.99560	0.48468
1831.03139	0.48047
1830.06719	0.47629
1829.10298	0.47790
1828.13877	0.48302
1827.17456	0.48525
1826.21035	0.48293
1825.24614	0.48039
1824.28194	0.48219
1823.31773	0.48574
1822.35352	0.48740
1821.38931	0.48790
1820.42510	0.48827
1819.46090	0.48839
1818.49669	0.48811
1817.53248	0.48783
1816.56827	0.48816
1815.60406	0.48880
1814.63985	0.48914
1813.67565	0.48899
1812.71144	0.48832
1811.74723	0.48694
1810.78302	0.48591
1809.81881	0.48674
1808.85460	0.48832
1807.89040	0.48899
1806.92619	0.48934
1805.96198	0.48985
1804.99777	0.49007
1804.03356	0.48955
1803.06936	0.48792
1802.10515	0.48625
1801.14094	0.48541
1800.17673	0.48478
1799.21252	0.48554
1798.24831	0.48809
1797.28411	0.48957
1796.31990	0.48923
1795.35569	0.48901
1794.39148	0.48671
1793.42727	0.47932
1792.46307	0.47371
1791.49886	0.47715
1790.53465	0.48417
1789.57044	0.48900
1788.60623	0.49133
1787.64202	0.49197
1786.67782	0.49119
1785.71361	0.48880
1784.74940	0.48743
1783.78519	0.48929
1782.82098	0.49126
1781.85677	0.49049
1780.89257	0.48871
1779.92836	0.48902
1778.96415	0.49098
1777.99994	0.49225
1777.03573	0.49190
1776.07153	0.49061
1775.10732	0.48934
1774.14311	0.48389
1773.17890	0.47233
1772.21469	0.46683
1771.25048	0.47482
1770.28628	0.48459
1769.32207	0.48644
1768.35786	0.48367
1767.39365	0.48534
1766.42944	0.49077
1765.46524	0.49362
1764.50103	0.49377
1763.53682	0.49123
1762.57261	0.48519
1761.60840	0.48209
1760.64419	0.48667
1759.67999	0.49199
1758.71578	0.49242
1757.75157	0.48911
1756.78736	0.48654
1755.82315	0.48869
1754.85895	0.49239
1753.89474	0.49317
1752.93053	0.48870
1751.96632	0.47908
1751.00211	0.47422
1750.03790	0.47874
1749.07370	0.48289
1748.10949	0.48416
1747.14528	0.48633
1746.18107	0.48880
1745.21686	0.48970
1744.25265	0.48860
1743.28845	0.48754
1742.32424	0.48837
1741.36003	0.48661
1740.39582	0.48004
1739.43161	0.47796
1738.46741	0.48424
1737.50320	0.48963
1736.53899	0.48731
1735.57478	0.47309
1734.61057	0.45208
1733.64636	0.44797
1732.68216	0.46610
1731.71795	0.48263
1730.75374	0.48726
1729.78953	0.48744
1728.82532	0.48977
1727.86112	0.49231
1726.89691	0.49319
1725.93270	0.49334
1724.96849	0.49299
1724.00428	0.49219
1723.04007	0.49200
1722.07587	0.49286
1721.11166	0.49302
1720.14745	0.48923
1719.18324	0.47721
1718.21903	0.46013
1717.25482	0.45566
1716.29062	0.46691
1715.32641	0.47629
1714.36220	0.48147
1713.39799	0.48813
1712.43378	0.49310
1711.46958	0.49428
1710.50537	0.49379
1709.54116	0.49392
1708.57695	0.49412
1707.61274	0.49120
1706.64853	0.48644
1705.68433	0.48404
1704.72012	0.48489
1703.75591	0.48809
1702.79170	0.48903
1701.82749	0.47563
1700.86329	0.44768
1699.89908	0.43973
1698.93487	0.46420
1697.97066	0.48099
1697.00645	0.47072
1696.04224	0.45203
1695.07804	0.45984
1694.11383	0.48313
1693.14962	0.49502
1692.18541	0.49677
1691.22120	0.49572
1690.25699	0.49401
1689.29279	0.49310
1688.32858	0.49335
1687.36437	0.49316
1686.40016	0.48370
1685.43595	0.45894
1684.47175	0.44136
1683.50754	0.45509
1682.54333	0.47795
1681.57912	0.48984
1680.61491	0.49253
1679.65070	0.49333
1678.68650	0.49534
1677.72229	0.49563
1676.75808	0.48912
1675.79387	0.47729
1674.82966	0.47519
1673.86546	0.48570
1672.90125	0.49193
1671.93704	0.48978
1670.97283	0.48481
1670.00862	0.47829
1669.04441	0.47629
1668.08021	0.48434
1667.11600	0.49329
1666.15179	0.49661
1665.18758	0.49637
1664.22337	0.49231
1663.25916	0.48575
1662.29496	0.48477
1661.33075	0.49069
1660.36654	0.49546
1659.40233	0.49669
1658.43812	0.49669
1657.47392	0.49616
1656.50971	0.49375
1655.54550	0.48402
1654.58129	0.45887
1653.61708	0.42113
1652.65287	0.41084
1651.68867	0.44704
1650.72446	0.48081
1649.76025	0.49076
1648.79604	0.48641
1647.83183	0.47765
1646.86763	0.46829
1645.90342	0.46659
1644.93921	0.47830
1643.97500	0.49085
1643.01079	0.49534
1642.04658	0.49579
1641.08238	0.49588
1640.11817	0.49579
1639.15396	0.49447
1638.18975	0.49060
1637.22554	0.48152
1636.26133	0.46584
1635.29713	0.45881
1634.33292	0.47337
1633.36871	0.49015
1632.40450	0.49639
1631.44029	0.49731
1630.47609	0.49723
1629.51188	0.49567
1628.54767	0.49220
1627.58346	0.49052
1626.61925	0.49289
1625.65504	0.49414
1624.69084	0.48912
1623.72663	0.48216
1622.76242	0.48293
1621.79821	0.48918
1620.83400	0.49265
1619.86980	0.49296
1618.90559	0.49001
1617.94138	0.47745
1616.97717	0.46123
1616.01296	0.46518
1615.04875	0.48352
1614.08455	0.49379
1613.12034	0.49579
1612.15613	0.49608
1611.19192	0.49594
1610.22771	0.49525
1609.26351	0.49493
1608.29930	0.49548
1607.33509	0.49624
1606.37088	0.49714
1605.40667	0.49811
1604.44246	0.49857
1603.47826	0.49862
1602.51405	0.49897
1601.54984	0.49962
1600.58563	0.50032
1599.62142	0.50098
1598.65721	0.50142
1597.69301	0.50161
1596.72880	0.50159
1595.76459	0.50146
1594.80038	0.50140
1593.83617	0.50183
1592.87197	0.50251
1591.90776	0.50288
1590.94355	0.50301
1589.97934	0.50314
1589.01513	0.50339
1588.05092	0.50364
1587.08672	0.50381
1586.12251	0.50388
1585.15830	0.50397
1584.19409	0.50408
1583.22988	0.50421
1582.26568	0.50443
1581.30147	0.50470
1580.33726	0.50493
1579.37305	0.50485
1578.40884	0.50189
1577.44463	0.48909
1576.48043	0.47180
1575.51622	0.47484
1574.55201	0.49377
1573.58780	0.50481
1572.62359	0.50690
1571.65938	0.50484
1570.69518	0.49746
1569.73097	0.49076
1568.76676	0.49456
1567.80255	0.50334
1566.83834	0.50726
1565.87414	0.50602
1564.90993	0.50437
1563.94572	0.50566
1562.98151	0.50762
1562.01730	0.50240
1561.05309	0.48277
1560.08889	0.45526
1559.12468	0.43994
1558.16047	0.44783
1557.19626	0.47320
1556.23205	0.49399
1555.26785	0.49635
1554.30364	0.49254
1553.33943	0.49849
1552.37522	0.50725
1551.41101	0.50879
1550.44680	0.50612
1549.48260	0.50615
1548.51839	0.50942
1547.55418	0.51133
1546.58997	0.50803
1545.62576	0.50134
1544.66155	0.49816
1543.69735	0.49635
1542.73314	0.48805
1541.76893	0.47767
1540.80472	0.46804
1539.84051	0.45748
1538.87631	0.46344
1537.91210	0.48787
1536.94789	0.50634
1535.98368	0.51094
1535.01947	0.50623
1534.05526	0.49891
1533.09106	0.49864
1532.12685	0.50589
1531.16264	0.51193
1530.19843	0.51384
1529.23422	0.51243
1528.27002	0.50972
1527.30581	0.50743
1526.34160	0.50402
1525.37739	0.50207
1524.41318	0.50420
1523.44897	0.50263
1522.48477	0.49121
1521.52056	0.47911
1520.55635	0.48277
1519.59214	0.49732
1518.62793	0.50386
1517.66372	0.49992
1516.69952	0.49803
1515.73531	0.50262
1514.77110	0.50739
1513.80689	0.50848
1512.84268	0.50626
1511.87848	0.50517
1510.91427	0.50619
1509.95006	0.50472
1508.98585	0.49783
1508.02164	0.48329
1507.05743	0.46574
1506.09323	0.46311
1505.12902	0.48182
1504.16481	0.50334
1503.20060	0.51399
1502.23639	0.51613
1501.27219	0.51617
1500.30798	0.51415
1499.34377	0.50969
1498.37956	0.50697
1497.41535	0.50372
1496.45114	0.49892
1495.48694	0.50301
1494.52273	0.51350
1493.55852	0.51879
1492.59431	0.51802
1491.63010	0.51305
1490.66590	0.50699
1489.70169	0.50610
1488.73748	0.50915
1487.77327	0.51071
1486.80906	0.51233
1485.84485	0.51602
1484.88065	0.51874
1483.91644	0.51936
1482.95223	0.51894
1481.98802	0.51788
1481.02381	0.51729
1480.05960	0.51773
1479.09540	0.51820
1478.13119	0.51680
1477.16698	0.51251
1476.20277	0.50890
1475.23856	0.50772
1474.27436	0.50282
1473.31015	0.49387
1472.34594	0.49115
1471.38173	0.49892
1470.41752	0.50914
1469.45331	0.51431
1468.48911	0.51518
1467.52490	0.51482
1466.56069	0.51178
1465.59648	0.50533
1464.63227	0.50266
1463.66807	0.50809
1462.70386	0.51384
1461.73965	0.51542
1460.77544	0.51416
1459.81123	0.50955
1458.84702	0.50000
1457.88282	0.48424
1456.91861	0.47344
1455.95440	0.48407
1454.99019	0.50309
1454.02598	0.51317
1453.06177	0.51552
1452.09757	0.51579
1451.13336	0.51638
1450.16915	0.51682
1449.20494	0.51488
1448.24073	0.51198
1447.27653	0.51254
1446.31232	0.51591
1445.34811	0.51808
1444.38390	0.51867
1443.41969	0.51894
1442.45548	0.51906
1441.49128	0.51912
1440.52707	0.51916
1439.56286	0.51889
1438.59865	0.51509
1437.63444	0.50440
1436.67024	0.49668
1435.70603	0.50372
1434.74182	0.51455
1433.77761	0.51857
1432.81340	0.51896
1431.84919	0.51859
1430.88499	0.51677
1429.92078	0.51530
1428.95657	0.51665
1427.99236	0.51910
1427.02815	0.52024
1426.06394	0.52016
1425.09974	0.51877
1424.13553	0.51716
1423.17132	0.51764
1422.20711	0.51921
1421.24290	0.51660
1420.27870	0.50657
1419.31449	0.49884
1418.35028	0.50397
1417.38607	0.51295
1416.42186	0.51753
1415.45765	0.51962
1414.49345	0.52073
1413.52924	0.52100
1412.56503	0.52086
1411.60082	0.52072
1410.63661	0.52086
1409.67241	0.52118
1408.70820	0.52151
1407.74399	0.52170
1406.77978	0.52107
1405.81557	0.51916
1404.85136	0.51803
1403.88716	0.51947
1402.92295	0.52144
1401.95874	0.52205
1400.99453	0.52081
1400.03032	0.51736
1399.06611	0.51475
1398.10191	0.51613
1397.13770	0.51831
1396.17349	0.51706
1395.20928	0.51343
1394.24507	0.51301
1393.28087	0.51748
1392.31666	0.52154
1391.35245	0.52267
1390.38824	0.52264
1389.42403	0.52145
1388.45982	0.51766
1387.49562	0.51439
1386.53141	0.51612
1385.56720	0.51993
1384.60299	0.52169
1383.63878	0.52205
1382.67458	0.52229
1381.71037	0.52255
1380.74616	0.52271
1379.78195	0.52271
1378.81774	0.52267
1377.85353	0.52281
1376.88933	0.52291
1375.92512	0.52200
1374.96091	0.52011
1373.99670	0.51924
1373.03249	0.52080
1372.06829	0.52317
1371.10408	0.52434
1370.13987	0.52428
1369.17566	0.52373
1368.21145	0.52367
1367.24724	0.52426
1366.28304	0.52474
1365.31883	0.52443
1364.35462	0.52260
1363.39041	0.52028
1362.42620	0.51984
1361.46199	0.52110
1360.49779	0.52278
1359.53358	0.52446
1358.56937	0.52545
1357.60516	0.52581
1356.64095	0.52603
1355.67675	0.52606
1354.71254	0.52614
1353.74833	0.52647
1352.78412	0.52681
1351.81991	0.52699
1350.85570	0.52706
1349.89150	0.52705
1348.92729	0.52709
1347.96308	0.52724
1346.99887	0.52742
1346.03466	0.52762
1345.07046	0.52781
1344.10625	0.52785
1343.14204	0.52778
1342.17783	0.52737
1341.21362	0.52633
1340.24941	0.52514
1339.28521	0.52486
1338.32100	0.52550
1337.35679	0.52629
1336.39258	0.52702
1335.42837	0.52779
1334.46416	0.52829
1333.49996	0.52834
1332.53575	0.52828
1331.57154	0.52834
1330.60733	0.52843
1329.64312	0.52844
1328.67892	0.52840
1327.71471	0.52834
1326.75050	0.52835
1325.78629	0.52845
1324.82208	0.52849
1323.85787	0.52844
1322.89367	0.52836
1321.92946	0.52823
1320.96525	0.52797
1320.00104	0.52753
1319.03683	0.52722
1318.07263	0.52724
1317.10842	0.52740
1316.14421	0.52757
1315.18000	0.52761
1314.21579	0.52744
1313.25158	0.52723
1312.28738	0.52723
1311.32317	0.52740
1310.35896	0.52751
1309.39475	0.52742
1308.43054	0.52724
1307.46633	0.52701
1306.50213	0.52667
1305.53792	0.52640
1304.57371	0.52639
1303.60950	0.52646
1302.64529	0.52651
1301.68109	0.52658
1300.71688	0.52664
1299.75267	0.52664
1298.78846	0.52657
1297.82425	0.52648
1296.86004	0.52641
1295.89584	0.52640
1294.93163	0.52640
1293.96742	0.52637
1293.00321	0.52632
1292.03900	0.52629
1291.07480	0.52624
1290.11059	0.52614
1289.14638	0.52598
1288.18217	0.52584
1287.21796	0.52584
1286.25375	0.52595
1285.28955	0.52598
1284.32534	0.52588
1283.36113	0.52572
1282.39692	0.52558
1281.43271	0.52545
1280.46850	0.52528
1279.50430	0.52505
1278.54009	0.52476
1277.57588	0.52443
1276.61167	0.52408
1275.64746	0.52374
1274.68326	0.52336
1273.71905	0.52292
1272.75484	0.52234
1271.79063	0.52167
1270.82642	0.52106
1269.86221	0.52044
1268.89801	0.51967
1267.93380	0.51880
1266.96959	0.51790
1266.00538	0.51697
1265.04117	0.51610
1264.07697	0.51529
1263.11276	0.51454
1262.14855	0.51383
1261.18434	0.51315
1260.22013	0.51263
1259.25592	0.51239
1258.29172	0.51228
1257.32751	0.51211
1256.36330	0.51184
1255.39909	0.51149
1254.43488	0.51105
1253.47068	0.51055
1252.50647	0.51003
1251.54226	0.50947
1250.57805	0.50885
1249.61384	0.50822
1248.64963	0.50759
1247.68543	0.50699
1246.72122	0.50639
1245.75701	0.50579
1244.79280	0.50521
1243.82859	0.50469
1242.86438	0.50425
1241.90018	0.50384
1240.93597	0.50344
1239.97176	0.50305
1239.00755	0.50272
1238.04334	0.50246
1237.07914	0.50227
1236.11493	0.50215
1235.15072	0.50209
1234.18651	0.50208
1233.22230	0.50211
1232.25809	0.50217
1231.29389	0.50225
1230.32968	0.50234
1229.36547	0.50247
1228.40126	0.50267
1227.43705	0.50287
1226.47285	0.50302
1225.50864	0.50317
1224.54443	0.50337
1223.58022	0.50360
1222.61601	0.50381
1221.65180	0.50399
1220.68760	0.50417
1219.72339	0.50437
1218.75918	0.50456
1217.79497	0.50476
1216.83076	0.50498
1215.86655	0.50520
1214.90235	0.50540
1213.93814	0.50557
1212.97393	0.50567
1212.00972	0.50578
1211.04551	0.50594
1210.08131	0.50613
1209.11710	0.50628
1208.15289	0.50637
1207.18868	0.50642
1206.22447	0.50645
1205.26026	0.50650
1204.29606	0.50656
1203.33185	0.50658
1202.36764	0.50654
1201.40343	0.50646
1200.43922	0.50637
1199.47502	0.50626
1198.51081	0.50611
1197.54660	0.50595
1196.58239	0.50579
1195.61818	0.50561
1194.65397	0.50539
1193.68977	0.50512
1192.72556	0.50481
1191.76135	0.50447
1190.79714	0.50409
1189.83293	0.50369
1188.86872	0.50325
1187.90452	0.50278
1186.94031	0.50235
1185.97610	0.50196
1185.01189	0.50154
1184.04768	0.50099
1183.08348	0.50025
1182.11927	0.49934
1181.15506	0.49864
1180.19085	0.49857
1179.22664	0.49904
1178.26243	0.49966
1177.29823	0.50018
1176.33402	0.50053
1175.36981	0.50068
1174.40560	0.50069
1173.44139	0.50061
1172.47719	0.50046
1171.51298	0.50023
1170.54877	0.49992
1169.58456	0.49948
1168.62035	0.49897
1167.65614	0.49849
1166.69194	0.49799
1165.72773	0.49743
1164.76352	0.49681
1163.79931	0.49623
1162.83510	0.49572
1161.87089	0.49524
1160.90669	0.49472
1159.94248	0.49417
1158.97827	0.49368
1158.01406	0.49325
1157.04985	0.49283
1156.08565	0.49238
1155.12144	0.49192
1154.15723	0.49145
1153.19302	0.49099
1152.22881	0.49055
1151.26460	0.49017
1150.30040	0.48989
1149.33619	0.48972
1148.37198	0.48964
1147.40777	0.48960
1146.44356	0.48952
1145.47936	0.48936
1144.51515	0.48915
1143.55094	0.48891
1142.58673	0.48871
1141.62252	0.48857
1140.65831	0.48847
1139.69411	0.48834
1138.72990	0.48816
1137.76569	0.48793
1136.80148	0.48763
1135.83727	0.48726
1134.87306	0.48688
1133.90886	0.48653
1132.94465	0.48620
1131.98044	0.48583
1131.01623	0.48538
1130.05202	0.48488
1129.08782	0.48439
1128.12361	0.48394
1127.15940	0.48348
1126.19519	0.48297
1125.23098	0.48240
1124.26677	0.48185
1123.30257	0.48136
1122.33836	0.48085
1121.37415	0.48029
1120.40994	0.47976
1119.44573	0.47928
1118.48153	0.47882
1117.51732	0.47833
1116.55311	0.47782
1115.58890	0.47729
1114.62469	0.47681
1113.66048	0.47639
1112.69628	0.47600
1111.73207	0.47564
1110.76786	0.47536
1109.80365	0.47515
1108.83944	0.47493
1107.87524	0.47470
1106.91103	0.47446
1105.94682	0.47425
1104.98261	0.47402
1104.01840	0.47375
1103.05419	0.47343
1102.08999	0.47306
1101.12578	0.47268
1100.16157	0.47233
1099.19736	0.47198
1098.23315	0.47163
1097.26894	0.47128
1096.30474	0.47097
1095.34053	0.47069
1094.37632	0.47040
1093.41211	0.47007
1092.44790	0.46972
1091.48370	0.46937
1090.51949	0.46903
1089.55528	0.46870
1088.59107	0.46833
1087.62686	0.46789
1086.66265	0.46747
1085.69845	0.46713
1084.73424	0.46681
1083.77003	0.46639
1082.80582	0.46585
1081.84161	0.46527
1080.87741	0.46479
1079.91320	0.46447
1078.94899	0.46423
1077.98478	0.46398
1077.02057	0.46370
1076.05636	0.46345
1075.09216	0.46325
1074.12795	0.46309
1073.16374	0.46297
1072.19953	0.46291
1071.23532	0.46290
1070.27111	0.46287
1069.30691	0.46280
1068.34270	0.46274
1067.37849	0.46273
1066.41428	0.46281
1065.45007	0.46296
1064.48587	0.46311
1063.52166	0.46324
1062.55745	0.46337
1061.59324	0.46352
1060.62903	0.46371
1059.66482	0.46391
1058.70062	0.46413
1057.73641	0.46437
1056.77220	0.46463
1055.80799	0.46487
1054.84378	0.46510
1053.87958	0.46534
1052.91537	0.46562
1051.95116	0.46592
1050.98695	0.46626
1050.02274	0.46661
1049.05853	0.46696
1048.09433	0.46735
1047.13012	0.46778
1046.16591	0.46822
1045.20170	0.46864
1044.23749	0.46905
1043.27328	0.46947
1042.30908	0.46994
1041.34487	0.47045
1040.38066	0.47094
1039.41645	0.47140
1038.45224	0.47188
1037.48804	0.47237
1036.52383	0.47287
1035.55962	0.47336
1034.59541	0.47382
1033.63120	0.47428
1032.66699	0.47474
1031.70279	0.47519
1030.73858	0.47561
1029.77437	0.47602
1028.81016	0.47643
1027.84595	0.47683
1026.88175	0.47723
1025.91754	0.47762
1024.95333	0.47802
1023.98912	0.47844
1023.02491	0.47889
1022.06070	0.47937
1021.09650	0.47983
1020.13229	0.48030
1019.16808	0.48081
1018.20387	0.48133
1017.23966	0.48183
1016.27545	0.48230
1015.31125	0.48281
1014.34704	0.48337
1013.38283	0.48394
1012.41862	0.48450
1011.45441	0.48509
1010.49021	0.48575
1009.52600	0.48644
1008.56179	0.48715
1007.59758	0.48783
1006.63337	0.48842
1005.66916	0.48891
1004.70496	0.48932
1003.74075	0.48969
1002.77654	0.48997
1001.81233	0.49018
1000.84812	0.49035
999.88392	0.49049
998.91971	0.49056
997.95550	0.49056
996.99129	0.49054
996.02708	0.49051
995.06287	0.49047
994.09867	0.49039
993.13446	0.49027
992.17025	0.49012
991.20604	0.48997
990.24183	0.48985
989.27763	0.48970
988.31342	0.48949
987.34921	0.48924
986.38500	0.48895
985.42079	0.48863
984.45658	0.48828
983.49238	0.48791
982.52817	0.48753
981.56396	0.48712
980.59975	0.48670
979.63554	0.48625
978.67133	0.48578
977.70713	0.48524
976.74292	0.48462
975.77871	0.48395
974.81450	0.48328
973.85029	0.48261
972.88609	0.48196
971.92188	0.48133
970.95767	0.48069
969.99346	0.48005
969.02925	0.47940
968.06504	0.47872
967.10084	0.47803
966.13663	0.47736
965.17242	0.47666
964.20821	0.47594
963.24400	0.47528
962.27980	0.47468
961.31559	0.47409
960.35138	0.47349
959.38717	0.47285
958.42296	0.47220
957.45875	0.47158
956.49455	0.47102
955.53034	0.47048
954.56613	0.46995
953.60192	0.46943
952.63771	0.46895
951.67350	0.46847
950.70930	0.46797
949.74509	0.46747
948.78088	0.46701
947.81667	0.46662
946.85246	0.46622
945.88826	0.46577
944.92405	0.46531
943.95984	0.46489
942.99563	0.46451
942.03142	0.46415
941.06721	0.46375
940.10301	0.46329
939.13880	0.46282
938.17459	0.46239
937.21038	0.46196
936.24617	0.46151
935.28197	0.46104
934.31776	0.46059
933.35355	0.46017
932.38934	0.45977
931.42513	0.45936
930.46092	0.45893
929.49672	0.45850
928.53251	0.45808
927.56830	0.45767
926.60409	0.45726
925.63988	0.45683
924.67567	0.45636
923.71147	0.45593
922.74726	0.45556
921.78305	0.45517
920.81884	0.45470
919.85463	0.45420
918.89043	0.45371
917.92622	0.45329
916.96201	0.45291
915.99780	0.45252
915.03359	0.45211
914.06938	0.45172
913.10518	0.45133
912.14097	0.45093
911.17676	0.45048
910.21255	0.44998
909.24834	0.44953
908.28414	0.44913
907.31993	0.44869
906.35572	0.44812
905.39151	0.44751
904.42730	0.44698
903.46309	0.44647
902.49889	0.44593
901.53468	0.44537
900.57047	0.44487
899.60626	0.44440
898.64205	0.44388
897.67784	0.44328
896.71364	0.44267
895.74943	0.44208
894.78522	0.44153
893.82101	0.44099
892.85680	0.44040
891.89260	0.43974
890.92839	0.43908
889.96418	0.43844
888.99997	0.43780
888.03576	0.43709
887.07155	0.43635
886.10735	0.43565
885.14314	0.43498
884.17893	0.43424
883.21472	0.43340
882.25051	0.43256
881.28631	0.43173
880.32210	0.43088
879.35789	0.42996
878.39368	0.42899
877.42947	0.42797
876.46526	0.42698
875.50106	0.42606
874.53685	0.42511
873.57264	0.42401
872.60843	0.42289
871.64422	0.42193
870.68002	0.42109
869.71581	0.42022
868.75160	0.41922
867.78739	0.41815
866.82318	0.41710
865.85897	0.41608
864.89477	0.41503
863.93056	0.41392
862.96635	0.41277
862.00214	0.41167
861.03793	0.41065
860.07372	0.40956
859.10952	0.40833
858.14531	0.40707
857.18110	0.40589
856.21689	0.40478
855.25268	0.40358
854.28848	0.40224
853.32427	0.40084
852.36006	0.39952
851.39585	0.39821
850.43164	0.39675
849.46743	0.39514
848.50323	0.39353
847.53902	0.39199
846.57481	0.39050
845.61060	0.38900
844.64639	0.38746
843.68219	0.38594
842.71798	0.38457
841.75377	0.38327
840.78956	0.38187
839.82535	0.38036
838.86114	0.37892
837.89694	0.37760
836.93273	0.37633
835.96852	0.37507
835.00431	0.37380
834.04010	0.37259
833.07589	0.37153
832.11169	0.37055
831.14748	0.36948
830.18327	0.36830
829.21906	0.36718
828.25485	0.36629
827.29065	0.36557
826.32644	0.36482
825.36223	0.36414
824.39802	0.36388
823.43381	0.36414
822.46960	0.36461
821.50540	0.36503
820.54119	0.36536
819.57698	0.36574
818.61277	0.36614
817.64856	0.36637
816.68436	0.36631
815.72015	0.36599
814.75594	0.36554
813.79173	0.36511
812.82752	0.36476
811.86331	0.36428
810.89911	0.36352
809.93490	0.36274
808.97069	0.36226
808.00648	0.36190
807.04227	0.36138
806.07806	0.36086
805.11386	0.36066
804.14965	0.36083
803.18544	0.36115
802.22123	0.36140
801.25702	0.36167
800.29282	0.36214
799.32861	0.36277
798.36440	0.36342
797.40019	0.36398
796.43598	0.36445
795.47177	0.36493
794.50757	0.36553
793.54336	0.36612
792.57915	0.36651
791.61494	0.36679
790.65073	0.36725
789.68653	0.36784
788.72232	0.36826
787.75811	0.36837
786.79390	0.36828
785.82969	0.36829
784.86548	0.36842
783.90128	0.36838
782.93707	0.36798
781.97286	0.36745
781.00865	0.36696
780.04444	0.36639
779.08023	0.36557
778.11603	0.36448
777.15182	0.36335
776.18761	0.36238
775.22340	0.36141
774.25919	0.36024
773.29499	0.35888
772.33078	0.35750
771.36657	0.35623
770.40236	0.35500
769.43815	0.35371
768.47394	0.35229
767.50974	0.35085
766.54553	0.34953
765.58132	0.34829
764.61711	0.34694
763.65290	0.34543
762.68870	0.34381
761.72449	0.34222
760.76028	0.34079
759.79607	0.33927
758.83186	0.33749
757.86765	0.33569
756.90345	0.33416
755.93924	0.33279
754.97503	0.33122
754.01082	0.32942
753.04661	0.32782
752.08241	0.32667
751.11820	0.32556
750.15399	0.32407
749.18978	0.32241
748.22557	0.32095
747.26136	0.31964
746.29716	0.31828
745.33295	0.31687
744.36874	0.31547
743.40453	0.31410
742.44032	0.31279
741.47611	0.31157
740.51191	0.31018
739.54770	0.30843
738.58349	0.30665
737.61928	0.30540
736.65507	0.30465
735.69087	0.30381
734.72666	0.30273
733.76245	0.30185
732.79824	0.30123
731.83403	0.30026
730.86982	0.29871
729.90562	0.29692
728.94141	0.29528
727.97720	0.29399
727.01299	0.29289
726.04878	0.29161
725.08458	0.29012
724.12037	0.28864
723.15616	0.28728
722.19195	0.28578
721.22774	0.28380
720.26353	0.28165
719.29933	0.27998
718.33512	0.27869
717.37091	0.27719
716.40670	0.27520
715.44249	0.27285
714.47828	0.27041
713.51408	0.26808
712.54987	0.26576
711.58566	0.26314
710.62145	0.26006
709.65724	0.25689
708.69304	0.25388
707.72883	0.25052
706.76462	0.24632
705.80041	0.24183
704.83620	0.23772
703.87199	0.23366
702.90779	0.22897
701.94358	0.22370
700.97937	0.21827
700.01516	0.21269
699.05095	0.20680
698.08675	0.20069
697.12254	0.19434
696.15833	0.18737
695.19412	0.17995
694.22991	0.17271
693.26570	0.16539
692.30150	0.15695
691.33729	0.14730
690.37308	0.13739
689.40887	0.12740
688.44466	0.11659
687.48045	0.10497
686.51625	0.09312
685.55204	0.08106
684.58783	0.06783
683.62362	0.05296
682.65941	0.03717
681.69521	0.02058
680.73100	0.00243
679.76679	-0.01740
678.80258	-0.03832
677.83837	-0.06005
676.87416	-0.08181
675.90996	-0.10244
674.94575	-0.12171
673.98154	-0.14074
673.01733	-0.16075
672.05312	-0.18109
671.08892	-0.20075
670.12471	-0.22227
669.16050	-0.23993
668.19629	-0.23825
667.23208	-0.23627
666.26787	-0.24213
665.30367	-0.24407
664.33946	-0.23950
663.37525	-0.23108
662.41104	-0.22003
661.44683	-0.20628
660.48262	-0.19019
659.51842	-0.17110
658.55421	-0.14778
657.59000	-0.12065
656.62579	-0.09045
655.66158	-0.05597
654.69738	-0.01672
653.73317	0.02511
652.76896	0.06665
651.80475	0.10683
650.84054	0.14580
649.87633	0.18379
648.91213	0.22032
647.94792	0.25494
646.98371	0.28815
646.01950	0.32079
645.05529	0.35339
644.09109	0.38528
643.12688	0.41568
642.16267	0.44497
641.19846	0.47409
640.23425	0.50320
639.27004	0.53154
638.30584	0.55859
637.34163	0.58469
636.37742	0.61075
635.41321	0.63678
634.44900	0.66191
633.48479	0.68625
632.52059	0.71065
631.55638	0.73550
630.59217	0.76073
629.62796	0.78618
628.66375	0.81154
627.69955	0.83678
626.73534	0.86298
625.77113	0.89068
624.80692	0.91858
623.84271	0.94602
622.87850	0.97419
621.91430	1.00356
620.95009	1.03326
619.98588	1.06279
619.02167	1.09234
618.05746	1.12234
617.09326	1.15301
616.12905	1.18410
615.16484	1.21518
614.20063	1.24590
613.23642	1.27629
612.27221	1.30715
611.30801	1.33861
610.34380	1.36939
609.37959	1.39908
608.41538	1.42861
607.45117	1.45846
606.48697	1.48804
605.52276	1.51659
604.55855	1.54387
603.59434	1.57017
602.63013	1.59653
601.66592	1.62322
600.70172	1.64858
599.73751	1.67170
