Wavelength (µm)	n, ZnS_Cleartran_ir_g
2.000350	2.271677	
2.006544	2.271358	
2.012775	2.271042	
2.019045	2.270730	
2.025355	2.270421	
2.031704	2.270115	
2.038093	2.269813	
2.044522	2.269514	
2.050992	2.269219	
2.057503	2.268927	
2.064056	2.268638	
2.070651	2.268353	
2.077287	2.268071	
2.083966	2.267792	
2.090689	2.267517	
2.097455	2.267245	
2.104265	2.266976	
2.111119	2.266711	
2.118018	2.266448	
2.124963	2.266190	
2.131953	2.265934	
2.138989	2.265681	
2.146071	2.265432	
2.153201	2.265186	
2.160379	2.264943	
2.167604	2.264703	
2.174878	2.264466	
2.182201	2.264232	
2.189573	2.264002	
2.196995	2.263775	
2.204468	2.263550	
2.211992	2.263329	
2.219567	2.263111	
2.227194	2.262896	
2.234875	2.262684	
2.242608	2.262475	
2.250394	2.262269	
2.258235	2.262065	
2.266131	2.261865	
2.274083	2.261668	
2.282090	2.261474	
2.290154	2.261282	
2.298275	2.261094	
2.306454	2.260909	
2.314692	2.260726	
2.322988	2.260546	
2.331344	2.260369	
2.339760	2.260195	
2.348238	2.260023	
2.356777	2.259855	
2.365378	2.259689	
2.374042	2.259526	
2.382771	2.259365	
2.391563	2.259208	
2.400420	2.259053	
2.409344	2.258900	
2.418334	2.258751	
2.427392	2.258604	
2.436517	2.258459	
2.445711	2.258317	
2.454976	2.258178	
2.464310	2.258041	
2.473716	2.257907	
2.483194	2.257775	
2.492744	2.257646	
2.502369	2.257519	
2.512068	2.257395	
2.521843	2.257273	
2.531693	2.257153	
2.541622	2.257036	
2.551628	2.256921	
2.561714	2.256809	
2.571879	2.256698	
2.582126	2.256590	
2.592454	2.256485	
2.602866	2.256381	
2.613361	2.256280	
2.623941	2.256181	
2.634608	2.256084	
2.645361	2.255989	
2.656203	2.255896	
2.667134	2.255805	
2.678155	2.255717	
2.689268	2.255630	
2.700473	2.255546	
2.711772	2.255463	
2.723166	2.255383	
2.734656	2.255304	
2.746244	2.255227	
2.757930	2.255152	
2.769717	2.255079	
2.781603	2.255008	
2.793593	2.254938	
2.805686	2.254870	
2.817885	2.254804	
2.830191	2.254740	
2.842603	2.254677	
2.855126	2.254616	
2.867759	2.254556	
2.880505	2.254498	
2.893364	2.254441	
2.906339	2.254386	
2.919430	2.254333	
2.932641	2.254281	
2.945971	2.254230	
2.959423	2.254180	
2.972998	2.254133	
2.986698	2.254086	
3.000526	2.254040	
3.014482	2.253996	
3.028569	2.253953	
3.042787	2.253911	
3.057139	2.253870	
3.071629	2.253830	
3.086255	2.253791	
3.101022	2.253753	
3.115931	2.253717	
3.130983	2.253681	
3.146183	2.253646	
3.161530	2.253612	
3.177028	2.253578	
3.192678	2.253546	
3.208483	2.253513	
3.224446	2.253482	
3.240568	2.253451	
3.256853	2.253421	
3.273301	2.253392	
3.289917	2.253363	
3.306702	2.253334	
3.323659	2.253306	
3.340792	2.253278	
3.358102	2.253250	
3.375592	2.253223	
3.393265	2.253195	
3.411124	2.253168	
3.429172	2.253141	
3.447413	2.253114	
3.465848	2.253087	
3.484482	2.253060	
3.503316	2.253033	
3.522356	2.253006	
3.541604	2.252978	
3.561063	2.252950	
3.580739	2.252922	
3.600631	2.252893	
3.620746	2.252864	
3.641088	2.252834	
3.661658	2.252804	
3.682464	2.252773	
3.703506	2.252741	
3.724790	2.252709	
3.746321	2.252675	
3.768102	2.252641	
3.790137	2.252605	
3.812433	2.252569	
3.834991	2.252531	
3.857819	2.252492	
3.880919	2.252452	
3.904298	2.252411	
3.927961	2.252367	
3.951912	2.252323	
3.976157	2.252276	
4.000701	2.252228	
4.025549	2.252179	
4.050710	2.252127	
4.076186	2.252073	
4.101985	2.252017	
4.128112	2.251959	
4.154573	2.251898	
4.181378	2.251836	
4.208529	2.251770	
4.236035	2.251702	
4.263905	2.251631	
4.292142	2.251558	
4.320757	2.251481	
4.349755	2.251402	
4.379145	2.251319	
4.408936	2.251233	
4.439133	2.251143	
4.469749	2.251050	
4.500788	2.250953	
4.532262	2.250852	
4.564180	2.250747	
4.596549	2.250638	
4.629383	2.250524	
4.662687	2.250407	
4.696474	2.250284	
4.730756	2.250156	
4.765540	2.250024	
4.800842	2.249887	
4.836668	2.249743	
4.873033	2.249595	
4.909952	2.249440	
4.947431	2.249280	
4.985490	2.249114	
5.024136	2.248941	
5.063386	2.248761	
5.103257	2.248575	
5.143758	2.248381	
5.184909	2.248180	
5.226722	2.247972	
5.269215	2.247755	
5.312407	2.247530	
5.356310	2.247297	
5.400947	2.247055	
5.446332	2.246804	
5.492487	2.246543	
5.539433	2.246272	
5.587185	2.245991	
5.635771	2.245700	
5.685206	2.245398	
5.735517	2.245084	
5.786729	2.244759	
5.838860	2.244421	
5.891943	2.244071	
5.945996	2.243707	
6.001050	2.243330	
6.057137	2.242939	
6.114278	2.242533	
6.172512	2.242111	
6.231861	2.241674	
6.292363	2.241220	
6.354055	2.240749	
6.416965	2.240259	
6.481137	2.239751	
6.546602	2.239224	
6.613402	2.238677	
6.681584	2.238108	
6.751183	2.237517	
6.822250	2.236903	
6.894826	2.236266	
6.968962	2.235603	
7.044714	2.234914	
7.122127	2.234198	
7.201260	2.233454	
7.282176	2.232680	
7.364926	2.231874	
7.449583	2.231036	
7.536204	2.230164	
7.624863	2.229257	
7.715638	2.228311	
7.808595	2.227327	
7.903827	2.226301	
8.001402	2.225231	
8.101417	2.224117	
8.203970	2.222954	
8.309147	2.221741	
8.417062	2.220475	
8.527810	2.219153	
8.641511	2.217773	
8.758293	2.216330	
8.878266	2.214821	
9.001580	2.213243	
9.128360	2.211592	
9.258761	2.209864	
9.392952	2.208053	
9.531080	2.206154	
9.673341	2.204164	
9.819903	2.202075	
9.970974	2.199881	
10.126778	2.197577	
10.287516	2.195153	
10.453450	2.192603	
10.624813	2.189919	
10.801889	2.187090	
10.984979	2.184106	
11.174371	2.180957	
11.370407	2.177630	
11.573458	2.174112	
11.783879	2.170388	
12.002108	2.166443	
12.228557	2.162259	
12.463715	2.157817	
12.708111	2.153094	
12.962267	2.148068	
13.226814	2.142712	
13.502366	2.136997	
13.789642	2.130891	
14.089428	2.124356	
14.402519	2.117351	
14.729861	2.109831	
15.072408	2.101744	
15.431266	2.093031	
15.807653	2.083624	
16.202833	2.073449	
16.618307	2.062416	
17.055620	2.050427	
17.516571	2.037365	
18.003160	2.023094	
18.517523	2.007459	
19.062180	1.990274	
19.639807	1.971323