4998.45537	-0.23511
4997.49116	-0.23452
4996.52695	-0.23389
4995.56274	-0.23322
4994.59854	-0.23244
4993.63433	-0.23150
4992.67012	-0.23050
4991.70591	-0.22949
4990.74170	-0.22856
4989.77749	-0.22770
4988.81329	-0.22687
4987.84908	-0.22609
4986.88487	-0.22542
4985.92066	-0.22485
4984.95645	-0.22418
4983.99225	-0.22326
4983.02804	-0.22222
4982.06383	-0.22132
4981.09962	-0.22051
4980.13541	-0.21970
4979.17120	-0.21891
4978.20700	-0.21811
4977.24279	-0.21736
4976.27858	-0.21666
4975.31437	-0.21590
4974.35016	-0.21501
4973.38596	-0.21410
4972.42175	-0.21322
4971.45754	-0.21235
4970.49333	-0.21140
4969.52912	-0.21042
4968.56491	-0.20956
4967.60071	-0.20885
4966.63650	-0.20812
4965.67229	-0.20726
4964.70808	-0.20630
4963.74387	-0.20540
4962.77966	-0.20459
4961.81546	-0.20384
4960.85125	-0.20304
4959.88704	-0.20219
4958.92283	-0.20133
4957.95862	-0.20039
4956.99442	-0.19934
4956.03021	-0.19833
4955.06600	-0.19748
4954.10179	-0.19672
4953.13758	-0.19584
4952.17337	-0.19484
4951.20917	-0.19394
4950.24496	-0.19313
4949.28075	-0.19226
4948.31654	-0.19136
4947.35233	-0.19056
4946.38813	-0.18978
4945.42392	-0.18887
4944.45971	-0.18788
4943.49550	-0.18697
4942.53129	-0.18616
4941.56708	-0.18525
4940.60288	-0.18420
4939.63867	-0.18307
4938.67446	-0.18197
4937.71025	-0.18102
4936.74604	-0.18020
4935.78183	-0.17938
4934.81763	-0.17845
4933.85342	-0.17741
4932.88921	-0.17636
4931.92500	-0.17540
4930.96079	-0.17453
4929.99659	-0.17364
4929.03238	-0.17276
4928.06817	-0.17194
4927.10396	-0.17114
4926.13975	-0.17029
4925.17554	-0.16932
4924.21134	-0.16825
4923.24713	-0.16720
4922.28292	-0.16624
4921.31871	-0.16529
4920.35450	-0.16435
4919.39030	-0.16347
4918.42609	-0.16252
4917.46188	-0.16144
4916.49767	-0.16032
4915.53346	-0.15929
4914.56925	-0.15834
4913.60505	-0.15740
4912.64084	-0.15653
4911.67663	-0.15567
4910.71242	-0.15463
4909.74821	-0.15355
4908.78400	-0.15258
4907.81980	-0.15161
4906.85559	-0.15057
4905.89138	-0.14953
4904.92717	-0.14857
4903.96296	-0.14765
4902.99876	-0.14671
4902.03455	-0.14578
4901.07034	-0.14483
4900.10613	-0.14377
4899.14192	-0.14261
4898.17771	-0.14147
4897.21351	-0.14051
4896.24930	-0.13968
4895.28509	-0.13871
4894.32088	-0.13755
4893.35667	-0.13642
4892.39247	-0.13550
4891.42826	-0.13463
4890.46405	-0.13357
4889.49984	-0.13248
4888.53563	-0.13147
4887.57142	-0.13045
4886.60722	-0.12941
4885.64301	-0.12843
4884.67880	-0.12742
4883.71459	-0.12637
4882.75038	-0.12531
4881.78618	-0.12424
4880.82197	-0.12317
4879.85776	-0.12210
4878.89355	-0.12104
4877.92934	-0.12002
4876.96513	-0.11899
4876.00093	-0.11790
4875.03672	-0.11684
4874.07251	-0.11589
4873.10830	-0.11495
4872.14409	-0.11396
4871.17988	-0.11300
4870.21568	-0.11205
4869.25147	-0.11096
4868.28726	-0.10977
4867.32305	-0.10862
4866.35884	-0.10748
4865.39464	-0.10631
4864.43043	-0.10521
4863.46622	-0.10423
4862.50201	-0.10329
4861.53780	-0.10227
4860.57359	-0.10115
4859.60939	-0.10000
4858.64518	-0.09895
4857.68097	-0.09797
4856.71676	-0.09693
4855.75255	-0.09581
4854.78835	-0.09465
4853.82414	-0.09342
4852.85993	-0.09223
4851.89572	-0.09125
4850.93151	-0.09038
4849.96730	-0.08941
4849.00310	-0.08824
4848.03889	-0.08701
4847.07468	-0.08588
4846.11047	-0.08482
4845.14626	-0.08377
4844.18205	-0.08263
4843.21785	-0.08146
4842.25364	-0.08031
4841.28943	-0.07915
4840.32522	-0.07798
4839.36101	-0.07684
4838.39681	-0.07575
4837.43260	-0.07469
4836.46839	-0.07359
4835.50418	-0.07240
4834.53997	-0.07118
4833.57576	-0.07005
4832.61156	-0.06902
4831.64735	-0.06804
4830.68314	-0.06695
4829.71893	-0.06575
4828.75472	-0.06455
4827.79052	-0.06341
4826.82631	-0.06228
4825.86210	-0.06114
4824.89789	-0.06007
4823.93368	-0.05904
4822.96947	-0.05794
4822.00527	-0.05678
4821.04106	-0.05564
4820.07685	-0.05447
4819.11264	-0.05316
4818.14843	-0.05186
4817.18422	-0.05072
4816.22002	-0.04970
4815.25581	-0.04865
4814.29160	-0.04749
4813.32739	-0.04626
4812.36318	-0.04505
4811.39898	-0.04389
4810.43477	-0.04278
4809.47056	-0.04169
4808.50635	-0.04058
4807.54214	-0.03943
4806.57793	-0.03828
4805.61373	-0.03709
4804.64952	-0.03583
4803.68531	-0.03462
4802.72110	-0.03352
4801.75689	-0.03242
4800.79269	-0.03121
4799.82848	-0.02994
4798.86427	-0.02874
4797.90006	-0.02763
4796.93585	-0.02646
4795.97164	-0.02519
4795.00744	-0.02389
4794.04323	-0.02265
4793.07902	-0.02153
4792.11481	-0.02047
4791.15060	-0.01934
4790.18639	-0.01810
4789.22219	-0.01688
4788.25798	-0.01576
4787.29377	-0.01463
4786.32956	-0.01338
4785.36535	-0.01213
4784.40115	-0.01094
4783.43694	-0.00972
4782.47273	-0.00850
4781.50852	-0.00730
4780.54431	-0.00611
4779.58010	-0.00492
4778.61590	-0.00366
4777.65169	-0.00239
4776.68748	-0.00121
4775.72327	-0.00005
4774.75906	0.00113
4773.79486	0.00232
4772.83065	0.00360
4771.86644	0.00487
4770.90223	0.00605
4769.93802	0.00720
4768.97381	0.00841
4768.00961	0.00962
4767.04540	0.01079
4766.08119	0.01201
4765.11698	0.01328
4764.15277	0.01456
4763.18857	0.01582
4762.22436	0.01704
4761.26015	0.01823
4760.29594	0.01944
4759.33173	0.02076
4758.36752	0.02214
4757.40332	0.02342
4756.43911	0.02461
4755.47490	0.02584
4754.51069	0.02714
4753.54648	0.02842
4752.58227	0.02961
4751.61807	0.03079
4750.65386	0.03201
4749.68965	0.03323
4748.72544	0.03453
4747.76123	0.03594
4746.79703	0.03735
4745.83282	0.03865
4744.86861	0.03989
4743.90440	0.04111
4742.94019	0.04226
4741.97598	0.04342
4741.01178	0.04469
4740.04757	0.04604
4739.08336	0.04741
4738.11915	0.04876
4737.15494	0.05007
4736.19074	0.05133
4735.22653	0.05258
4734.26232	0.05381
4733.29811	0.05505
4732.33390	0.05631
4731.36969	0.05763
4730.40549	0.05897
4729.44128	0.06032
4728.47707	0.06165
4727.51286	0.06293
4726.54865	0.06420
4725.58444	0.06554
4724.62024	0.06690
4723.65603	0.06820
4722.69182	0.06944
4721.72761	0.07064
4720.76340	0.07182
4719.79920	0.07303
4718.83499	0.07435
4717.87078	0.07581
4716.90657	0.07726
4715.94236	0.07852
4714.97815	0.07975
4714.01395	0.08114
4713.04974	0.08255
4712.08553	0.08383
4711.12132	0.08504
4710.15711	0.08627
4709.19291	0.08757
4708.22870	0.08889
4707.26449	0.09014
4706.30028	0.09141
4705.33607	0.09281
4704.37186	0.09430
4703.40766	0.09575
4702.44345	0.09714
4701.47924	0.09848
4700.51503	0.09979
4699.55082	0.10106
4698.58661	0.10234
4697.62241	0.10371
4696.65820	0.10513
4695.69399	0.10647
4694.72978	0.10774
4693.76557	0.10908
4692.80137	0.11048
4691.83716	0.11184
4690.87295	0.11311
4689.90874	0.11441
4688.94453	0.11575
4687.98032	0.11706
4687.01612	0.11843
4686.05191	0.11992
4685.08770	0.12137
4684.12349	0.12271
4683.15928	0.12402
4682.19508	0.12533
4681.23087	0.12665
4680.26666	0.12810
4679.30245	0.12963
4678.33824	0.13103
4677.37403	0.13228
4676.40983	0.13352
4675.44562	0.13487
4674.48141	0.13632
4673.51720	0.13783
4672.55299	0.13932
4671.58878	0.14071
4670.62458	0.14199
4669.66037	0.14325
4668.69616	0.14459
4667.73195	0.14600
4666.76774	0.14740
4665.80354	0.14878
4664.83933	0.15021
4663.87512	0.15170
4662.91091	0.15315
4661.94670	0.15451
4660.98249	0.15582
4660.01829	0.15724
4659.05408	0.15877
4658.08987	0.16021
4657.12566	0.16155
4656.16145	0.16293
4655.19725	0.16439
4654.23304	0.16585
4653.26883	0.16721
4652.30462	0.16855
4651.34041	0.16999
4650.37620	0.17148
4649.41200	0.17291
4648.44779	0.17429
4647.48358	0.17568
4646.51937	0.17710
4645.55516	0.17853
4644.59096	0.17995
4643.62675	0.18133
4642.66254	0.18276
4641.69833	0.18426
4640.73412	0.18572
4639.76991	0.18715
4638.80571	0.18863
4637.84150	0.19017
4636.87729	0.19167
4635.91308	0.19304
4634.94887	0.19434
4633.98466	0.19570
4633.02046	0.19718
4632.05625	0.19875
4631.09204	0.20037
4630.12783	0.20190
4629.16362	0.20331
4628.19942	0.20471
4627.23521	0.20616
4626.27100	0.20762
4625.30679	0.20906
4624.34258	0.21047
4623.37837	0.21192
4622.41417	0.21349
4621.44996	0.21505
4620.48575	0.21648
4619.52154	0.21791
4618.55733	0.21941
4617.59313	0.22091
4616.62892	0.22238
4615.66471	0.22385
4614.70050	0.22533
4613.73629	0.22683
4612.77208	0.22831
4611.80788	0.22977
4610.84367	0.23134
4609.87946	0.23298
4608.91525	0.23453
4607.95104	0.23594
4606.98683	0.23733
4606.02263	0.23887
4605.05842	0.24048
4604.09421	0.24201
4603.13000	0.24352
4602.16579	0.24506
4601.20159	0.24657
4600.23738	0.24808
4599.27317	0.24968
4598.30896	0.25126
4597.34475	0.25270
4596.38054	0.25412
4595.41634	0.25565
4594.45213	0.25729
4593.48792	0.25893
4592.52371	0.26047
4591.55950	0.26196
4590.59530	0.26348
4589.63109	0.26501
4588.66688	0.26660
4587.70267	0.26823
4586.73846	0.26982
4585.77425	0.27137
4584.81005	0.27294
4583.84584	0.27451
4582.88163	0.27605
4581.91742	0.27756
4580.95321	0.27904
4579.98900	0.28056
4579.02480	0.28218
4578.06059	0.28377
4577.09638	0.28527
4576.13217	0.28671
4575.16796	0.28826
4574.20376	0.28998
4573.23955	0.29169
4572.27534	0.29337
4571.31113	0.29507
4570.34692	0.29671
4569.38271	0.29823
4568.41851	0.29964
4567.45430	0.30112
4566.49009	0.30279
4565.52588	0.30450
4564.56167	0.30604
4563.59747	0.30756
4562.63326	0.30925
4561.66905	0.31097
4560.70484	0.31255
4559.74063	0.31406
4558.77642	0.31565
4557.81222	0.31735
4556.84801	0.31915
4555.88380	0.32094
4554.91959	0.32251
4553.95538	0.32394
4552.99117	0.32550
4552.02697	0.32722
4551.06276	0.32897
4550.09855	0.33065
4549.13434	0.33226
4548.17013	0.33388
4547.20593	0.33550
4546.24172	0.33709
4545.27751	0.33869
4544.31330	0.34032
4543.34909	0.34195
4542.38488	0.34366
4541.42068	0.34544
4540.45647	0.34718
4539.49226	0.34880
4538.52805	0.35035
4537.56384	0.35198
4536.59964	0.35375
4535.63543	0.35554
4534.67122	0.35724
4533.70701	0.35888
4532.74280	0.36054
4531.77859	0.36220
4530.81439	0.36387
4529.85018	0.36555
4528.88597	0.36721
4527.92176	0.36883
4526.95755	0.37047
4525.99335	0.37220
4525.02914	0.37392
4524.06493	0.37563
4523.10072	0.37740
4522.13651	0.37917
4521.17230	0.38086
4520.20810	0.38253
4519.24389	0.38430
4518.27968	0.38613
4517.31547	0.38788
4516.35126	0.38957
4515.38705	0.39133
4514.42285	0.39311
4513.45864	0.39480
4512.49443	0.39649
4511.53022	0.39826
4510.56601	0.40005
4509.60181	0.40179
4508.63760	0.40350
4507.67339	0.40526
4506.70918	0.40701
4505.74497	0.40877
4504.78076	0.41052
4503.81656	0.41231
4502.85235	0.41412
4501.88814	0.41589
4500.92393	0.41759
4499.95972	0.41929
4498.99552	0.42104
4498.03131	0.42289
4497.06710	0.42481
4496.10289	0.42666
4495.13868	0.42840
4494.17447	0.43015
4493.21027	0.43192
4492.24606	0.43371
4491.28185	0.43556
4490.31764	0.43740
4489.35343	0.43915
4488.38922	0.44083
4487.42502	0.44256
4486.46081	0.44446
4485.49660	0.44646
4484.53239	0.44836
4483.56818	0.45014
4482.60398	0.45193
4481.63977	0.45382
4480.67556	0.45573
4479.71135	0.45758
4478.74714	0.45934
4477.78293	0.46110
4476.81873	0.46299
4475.85452	0.46495
4474.89031	0.46681
4473.92610	0.46866
4472.96189	0.47055
4471.99769	0.47236
4471.03348	0.47408
4470.06927	0.47589
4469.10506	0.47781
4468.14085	0.47974
4467.17664	0.48168
4466.21244	0.48362
4465.24823	0.48553
4464.28402	0.48742
4463.31981	0.48931
4462.35560	0.49122
4461.39139	0.49316
4460.42719	0.49509
4459.46298	0.49698
4458.49877	0.49882
4457.53456	0.50067
4456.57035	0.50258
4455.60615	0.50455
4454.64194	0.50655
4453.67773	0.50850
4452.71352	0.51034
4451.74931	0.51215
4450.78510	0.51402
4449.82090	0.51603
4448.85669	0.51812
4447.89248	0.52019
4446.92827	0.52219
4445.96406	0.52406
4444.99986	0.52581
4444.03565	0.52769
4443.07144	0.52974
4442.10723	0.53177
4441.14302	0.53372
4440.17881	0.53563
4439.21461	0.53761
4438.25040	0.53974
4437.28619	0.54190
4436.32198	0.54396
4435.35777	0.54591
4434.39356	0.54781
4433.42936	0.54971
4432.46515	0.55161
4431.50094	0.55364
4430.53673	0.55574
4429.57252	0.55770
4428.60832	0.55956
4427.64411	0.56158
4426.67990	0.56376
4425.71569	0.56591
4424.75148	0.56791
4423.78727	0.56987
4422.82307	0.57191
4421.85886	0.57399
4420.89465	0.57606
4419.93044	0.57810
4418.96623	0.58011
4418.00203	0.58217
4417.03782	0.58425
4416.07361	0.58633
4415.10940	0.58848
4414.14519	0.59070
4413.18098	0.59288
4412.21678	0.59500
4411.25257	0.59712
4410.28836	0.59923
4409.32415	0.60130
4408.35994	0.60339
4407.39573	0.60546
4406.43153	0.60745
4405.46732	0.60940
4404.50311	0.61143
4403.53890	0.61358
4402.57469	0.61576
4401.61049	0.61788
4400.64628	0.62002
4399.68207	0.62224
4398.71786	0.62446
4397.75365	0.62658
4396.78944	0.62868
4395.82524	0.63081
4394.86103	0.63300
4393.89682	0.63522
4392.93261	0.63743
4391.96840	0.63960
4391.00420	0.64175
4390.03999	0.64393
4389.07578	0.64622
4388.11157	0.64858
4387.14736	0.65084
4386.18315	0.65299
4385.21895	0.65520
4384.25474	0.65750
4383.29053	0.65982
4382.32632	0.66208
4381.36211	0.66426
4380.39791	0.66633
4379.43370	0.66847
4378.46949	0.67090
4377.50528	0.67337
4376.54107	0.67555
4375.57686	0.67774
4374.61266	0.68012
4373.64845	0.68242
4372.68424	0.68455
4371.72003	0.68676
4370.75582	0.68918
4369.79161	0.69162
4368.82741	0.69389
4367.86320	0.69606
4366.89899	0.69829
4365.93478	0.70064
4364.97057	0.70305
4364.00637	0.70538
4363.04216	0.70766
4362.07795	0.70992
4361.11374	0.71224
4360.14953	0.71475
4359.18532	0.71734
4358.22112	0.71969
4357.25691	0.72177
4356.29270	0.72385
4355.32849	0.72613
4354.36428	0.72860
4353.40008	0.73117
4352.43587	0.73377
4351.47166	0.73641
4350.50745	0.73897
4349.54324	0.74142
4348.57903	0.74380
4347.61483	0.74626
4346.65062	0.74876
4345.68641	0.75114
4344.72220	0.75345
4343.75799	0.75582
4342.79378	0.75822
4341.82958	0.76060
4340.86537	0.76301
4339.90116	0.76553
4338.93695	0.76811
4337.97274	0.77075
4337.00854	0.77339
4336.04433	0.77594
4335.08012	0.77840
4334.11591	0.78078
4333.15170	0.78317
4332.18749	0.78575
4331.22329	0.78852
4330.25908	0.79120
4329.29487	0.79369
4328.33066	0.79613
4327.36645	0.79856
4326.40225	0.80100
4325.43804	0.80357
4324.47383	0.80628
4323.50962	0.80904
4322.54541	0.81166
4321.58120	0.81420
4320.61700	0.81687
4319.65279	0.81954
4318.68858	0.82204
4317.72437	0.82450
4316.76016	0.82704
4315.79595	0.82969
4314.83175	0.83246
4313.86754	0.83530
4312.90333	0.83807
4311.93912	0.84079
4310.97491	0.84354
4310.01071	0.84621
4309.04650	0.84878
4308.08229	0.85140
4307.11808	0.85412
4306.15387	0.85694
4305.18966	0.85983
4304.22546	0.86275
4303.26125	0.86552
4302.29704	0.86813
4301.33283	0.87072
4300.36862	0.87338
4299.40442	0.87610
4298.44021	0.87883
4297.47600	0.88169
4296.51179	0.88479
4295.54758	0.88790
4294.58337	0.89067
4293.61917	0.89321
4292.65496	0.89591
4291.69075	0.89881
4290.72654	0.90172
4289.76233	0.90466
4288.79812	0.90766
4287.83392	0.91053
4286.86971	0.91328
4285.90550	0.91615
4284.94129	0.91926
4283.97708	0.92249
4283.01288	0.92559
4282.04867	0.92844
4281.08446	0.93112
4280.12025	0.93375
4279.15604	0.93657
4278.19183	0.93974
4277.22763	0.94309
4276.26342	0.94624
4275.29921	0.94902
4274.33500	0.95170
4273.37079	0.95454
4272.40659	0.95751
4271.44238	0.96067
4270.47817	0.96387
4269.51396	0.96691
4268.54975	0.96992
4267.58554	0.97290
4266.62134	0.97583
4265.65713	0.97885
4264.69292	0.98201
4263.72871	0.98530
4262.76450	0.98843
4261.80030	0.99131
4260.83609	0.99430
4259.87188	0.99770
4258.90767	1.00115
4257.94346	1.00426
4256.97925	1.00723
4256.01505	1.01030
4255.05084	1.01319
4254.08663	1.01591
4253.12242	1.01892
4252.15821	1.02223
4251.19400	1.02574
4250.22980	1.02957
4249.26559	1.03331
4248.30138	1.03658
4247.33717	1.03957
4246.37296	1.04247
4245.40876	1.04553
4244.44455	1.04892
4243.48034	1.05240
4242.51613	1.05575
4241.55192	1.05904
4240.58771	1.06241
4239.62351	1.06599
4238.65930	1.06984
4237.69509	1.07362
4236.73088	1.07682
4235.76667	1.07975
4234.80247	1.08321
4233.83826	1.08699
4232.87405	1.09051
4231.90984	1.09382
4230.94563	1.09724
4229.98142	1.10078
4229.01722	1.10429
4228.05301	1.10760
4227.08880	1.11067
4226.12459	1.11374
4225.16038	1.11736
4224.19617	1.12155
4223.23197	1.12570
4222.26776	1.12949
4221.30355	1.13307
4220.33934	1.13669
4219.37513	1.14040
4218.41093	1.14398
4217.44672	1.14759
4216.48251	1.15132
4215.51830	1.15474
4214.55409	1.15800
4213.58988	1.16158
4212.62568	1.16539
4211.66147	1.16922
4210.69726	1.17304
4209.73305	1.17698
4208.76884	1.18092
4207.80464	1.18458
4206.84043	1.18813
4205.87622	1.19206
4204.91201	1.19626
4203.94780	1.20013
4202.98359	1.20369
4202.01939	1.20748
4201.05518	1.21162
4200.09097	1.21597
4199.12676	1.22043
4198.16255	1.22472
4197.19834	1.22866
4196.23414	1.23214
4195.26993	1.23524
4194.30572	1.23876
4193.34151	1.24325
4192.37730	1.24820
4191.41310	1.25270
4190.44889	1.25640
4189.48468	1.25984
4188.52047	1.26381
4187.55626	1.26842
4186.59205	1.27266
4185.62785	1.27600
4184.66364	1.27956
4183.69943	1.28407
4182.73522	1.28891
4181.77101	1.29339
4180.80681	1.29732
4179.84260	1.30133
4178.87839	1.30587
4177.91418	1.31047
4176.94997	1.31501
4175.98576	1.31976
4175.02156	1.32440
4174.05735	1.32865
4173.09314	1.33283
4172.12893	1.33705
4171.16472	1.34100
4170.20051	1.34513
4169.23631	1.35000
4168.27210	1.35494
4167.30789	1.35917
4166.34368	1.36304
4165.37947	1.36730
4164.41527	1.37204
4163.45106	1.37704
4162.48685	1.38236
4161.52264	1.38786
4160.55843	1.39333
4159.59422	1.39857
4158.63002	1.40284
4157.66581	1.40615
4156.70160	1.41006
4155.73739	1.41543
4154.77318	1.42133
4153.80898	1.42651
4152.84477	1.43064
4151.88056	1.43465
4150.91635	1.43973
4149.95214	1.44551
4148.98793	1.45066
4148.02373	1.45520
4147.05952	1.46030
4146.09531	1.46612
4145.13110	1.47163
4144.16689	1.47636
4143.20269	1.48085
4142.23848	1.48578
4141.27427	1.49078
4140.31006	1.49532
4139.34585	1.50047
4138.38164	1.50669
4137.41744	1.51264
4136.45323	1.51813
4135.48902	1.52373
4134.52481	1.52902
4133.56060	1.53395
4132.59639	1.53926
4131.63219	1.54512
4130.66798	1.55128
4129.70377	1.55739
4128.73956	1.56309
4127.77535	1.56767
4126.81115	1.57130
4125.84694	1.57624
4124.88273	1.58262
4123.91852	1.58849
4122.95431	1.59393
4121.99010	1.59979
4121.02590	1.60613
4120.06169	1.61289
4119.09748	1.61966
4118.13327	1.62577
4117.16906	1.63140
4116.20486	1.63753
4115.24065	1.64439
4114.27644	1.65106
4113.31223	1.65695
4112.34802	1.66210
4111.38381	1.66675
4110.41961	1.67181
4109.45540	1.67843
4108.49119	1.68658
4107.52698	1.69472
4106.56277	1.70136
4105.59856	1.70699
4104.63436	1.71276
4103.67015	1.71901
4102.70594	1.72558
4101.74173	1.73175
4100.77752	1.73747
4099.81332	1.74371
4098.84911	1.75116
4097.88490	1.75921
4096.92069	1.76681
4095.95648	1.77363
4094.99227	1.77951
4094.02807	1.78506
4093.06386	1.79189
4092.09965	1.79974
4091.13544	1.80682
4090.17123	1.81319
4089.20703	1.81968
4088.24282	1.82623
4087.27861	1.83346
4086.31440	1.84128
4085.35019	1.84879
4084.38598	1.85703
4083.42178	1.86616
4082.45757	1.87353
4081.49336	1.87845
4080.52915	1.88375
4079.56494	1.89221
4078.60073	1.90322
4077.63653	1.91262
4076.67232	1.91784
4075.70811	1.92266
4074.74390	1.93135
4073.77969	1.94166
4072.81549	1.95047
4071.85128	1.95918
4070.88707	1.96803
4069.92286	1.97530
4068.95865	1.98145
4067.99444	1.98779
4067.03024	1.99518
4066.06603	2.00357
4065.10182	2.01195
4064.13761	2.01959
4063.17340	2.02702
4062.20920	2.03615
4061.24499	2.04674
4060.28078	2.05633
4059.31657	2.06430
4058.35236	2.07240
4057.38815	2.08329
4056.42395	2.09528
4055.45974	2.10285
4054.49553	2.10631
4053.53132	2.11206
4052.56711	2.12307
4051.60290	2.13607
4050.63870	2.14602
4049.67449	2.15086
4048.71028	2.15481
4047.74607	2.16254
4046.78186	2.17178
4045.81766	2.18011
4044.85345	2.18902
4043.88924	2.19763
4042.92503	2.20483
4041.96082	2.21391
4040.99661	2.22594
4040.03241	2.23843
4039.06820	2.24981
4038.10399	2.25525
4037.13978	2.25505
4036.17557	2.25983
4035.21137	2.27279
4034.24716	2.28597
4033.28295	2.29365
4032.31874	2.29862
4031.35453	2.30600
4030.39032	2.31520
4029.42612	2.32290
4028.46191	2.33121
4027.49770	2.34097
4026.53349	2.34675
4025.56928	2.34892
4024.60508	2.35213
4023.64087	2.35530
4022.67666	2.35758
4021.71245	2.36208
4020.74824	2.37027
4019.78403	2.37808
4018.81983	2.38091
4017.85562	2.38333
4016.89141	2.39196
4015.92720	2.40005
4014.96299	2.40385
4013.99878	2.41075
4013.03458	2.41754
4012.07037	2.41910
4011.10616	2.41837
4010.14195	2.41686
4009.17774	2.41826
4008.21354	2.42517
4007.24933	2.43145
4006.28512	2.43262
4005.32091	2.43287
4004.35670	2.43486
4003.39249	2.43969
4002.42829	2.44723
4001.46408	2.45099
4000.49987	2.44801
3999.53566	2.44401
3998.57145	2.44525
3997.60725	2.45044
3996.64304	2.45442
3995.67883	2.45597
3994.71462	2.45833
3993.75041	2.46195
3992.78620	2.46207
3991.82200	2.45984
3990.85779	2.46008
3989.89358	2.46357
3988.92937	2.47036
3987.96516	2.47535
3987.00095	2.47112
3986.03675	2.46184
3985.07254	2.45776
3984.10833	2.45953
3983.14412	2.46289
3982.17991	2.46630
3981.21571	2.46936
3980.25150	2.47463
3979.28729	2.48194
3978.32308	2.48553
3977.35887	2.48229
3976.39466	2.47583
3975.43046	2.47185
3974.46625	2.47409
3973.50204	2.47877
3972.53783	2.47804
3971.57362	2.47514
3970.60942	2.47558
3969.64521	2.47759
3968.68100	2.47858
3967.71679	2.47366
3966.75258	2.46427
3965.78837	2.45905
3964.82417	2.45981
3963.85996	2.46289
3962.89575	2.46603
3961.93154	2.46787
3960.96733	2.46675
3960.00312	2.46344
3959.03892	2.46039
3958.07471	2.45641
3957.11050	2.44939
3956.14629	2.44257
3955.18208	2.43980
3954.21788	2.43809
3953.25367	2.43369
3952.28946	2.42834
3951.32525	2.42430
3950.36104	2.41875
3949.39683	2.41007
3948.43263	2.40391
3947.46842	2.40404
3946.50421	2.40816
3945.54000	2.41042
3944.57579	2.40580
3943.61159	2.39553
3942.64738	2.38804
3941.68317	2.38827
3940.71896	2.38916
3939.75475	2.38748
3938.79054	2.38368
3937.82634	2.37665
3936.86213	2.36856
3935.89792	2.35963
3934.93371	2.34733
3933.96950	2.33139
3933.00529	2.31688
3932.04109	2.31113
3931.07688	2.31150
3930.11267	2.30799
3929.14846	2.29798
3928.18425	2.28816
3927.22005	2.28302
3926.25584	2.27604
3925.29163	2.26267
3924.32742	2.25119
3923.36321	2.24572
3922.39900	2.24052
3921.43480	2.23198
3920.47059	2.22047
3919.50638	2.20967
3918.54217	2.19781
3917.57796	2.18184
3916.61376	2.17147
3915.64955	2.17170
3914.68534	2.17313
3913.72113	2.17011
3912.75692	2.16345
3911.79271	2.15367
3910.82851	2.14265
3909.86430	2.13204
3908.90009	2.12170
3907.93588	2.11158
3906.97167	2.10013
3906.00746	2.08420
3905.04326	2.06124
3904.07905	2.04175
3903.11484	2.03436
3902.15063	2.02799
3901.18642	2.02117
3900.22222	2.01404
3899.25801	2.00448
3898.29380	2.00719
3897.32959	2.01770
3896.36538	2.01821
3895.40117	2.01029
3894.43697	2.00074
3893.47276	1.98899
3892.50855	1.96696
3891.54434	1.94183
3890.58013	1.93958
3889.61593	1.95483
3888.65172	1.95979
3887.68751	1.94632
3886.72330	1.91270
3885.75909	1.87899
3884.79488	1.88073
3883.83068	1.90122
3882.86647	1.90666
3881.90226	1.89375
3880.93805	1.86970
3879.97384	1.85551
3879.00964	1.86444
3878.04543	1.87597
3877.08122	1.87481
3876.11701	1.86391
3875.15280	1.84360
3874.18859	1.82441
3873.22439	1.82226
3872.26018	1.82239
3871.29597	1.79686
3870.33176	1.75425
3869.36755	1.74208
3868.40334	1.76959
3867.43914	1.79304
3866.47493	1.78384
3865.51072	1.75286
3864.54651	1.73663
3863.58230	1.74599
3862.61810	1.75005
3861.65389	1.74377
3860.68968	1.74635
3859.72547	1.75281
3858.76126	1.74972
3857.79705	1.73675
3856.83285	1.72131
3855.86864	1.68649
3854.90443	1.60877
3853.94022	1.57323
3852.97601	1.56946
3852.01181	1.59319
3851.04760	1.63558
3850.08339	1.67446
3849.11918	1.68832
3848.15497	1.68780
3847.19076	1.68436
3846.22656	1.67840
3845.26235	1.66726
3844.29814	1.64929
3843.33393	1.63697
3842.36972	1.63335
3841.40551	1.62251
3840.44131	1.60784
3839.47710	1.58990
3838.51289	1.54994
3837.54868	1.52627
3836.58447	1.55183
3835.62027	1.57535
3834.65606	1.57620
3833.69185	1.58265
3832.72764	1.58158
3831.76343	1.56712
3830.79922	1.56728
3829.83502	1.58005
3828.87081	1.58257
3827.90660	1.57202
3826.94239	1.55828
3825.97818	1.55301
3825.01398	1.55568
3824.04977	1.55371
3823.08556	1.53329
3822.12135	1.48963
3821.15714	1.45589
3820.19293	1.46791
3819.22873	1.50306
3818.26452	1.51629
3817.30031	1.48524
3816.33610	1.43199
3815.37189	1.42760
3814.40768	1.47434
3813.44348	1.50447
3812.47927	1.50654
3811.51506	1.50211
3810.55085	1.49752
3809.58664	1.49131
3808.62244	1.47109
3807.65823	1.42893
3806.69402	1.40349
3805.72981	1.42713
3804.76560	1.45612
3803.80139	1.45413
3802.83719	1.41840
3801.87298	1.36256
3800.90877	1.34768
3799.94456	1.39131
3798.98035	1.42889
3798.01615	1.42961
3797.05194	1.41319
3796.08773	1.40508
3795.12352	1.41387
3794.15931	1.42350
3793.19510	1.42384
3792.23090	1.42054
3791.26669	1.41686
3790.30248	1.41278
3789.33827	1.40867
3788.37406	1.40473
3787.40985	1.40061
3786.44565	1.39441
3785.48144	1.38567
3784.51723	1.37898
3783.55302	1.37847
3782.58881	1.37940
3781.62461	1.37485
3780.66040	1.36089
3779.69619	1.34385
3778.73198	1.34129
3777.76777	1.35113
3776.80356	1.35699
3775.83936	1.35651
3774.87515	1.35358
3773.91094	1.34976
3772.94673	1.34546
3771.98252	1.33772
3771.01832	1.31784
3770.05411	1.29370
3769.08990	1.29317
3768.12569	1.31018
3767.16148	1.31293
3766.19727	1.29886
3765.23307	1.29161
3764.26886	1.29906
3763.30465	1.30589
3762.34044	1.30490
3761.37623	1.29480
3760.41203	1.27429
3759.44782	1.26039
3758.48361	1.26562
3757.51940	1.26966
3756.55519	1.26470
3755.59098	1.26520
3754.62678	1.26494
3753.66257	1.23298
3752.69836	1.16688
3751.73415	1.13750
3750.76994	1.14836
3749.80573	1.13375
3748.84153	1.13237
3747.87732	1.18487
3746.91311	1.21744
3745.94890	1.17236
3744.98469	1.08124
3744.02049	1.06318
3743.05628	1.13459
3742.09207	1.20223
3741.12786	1.21512
3740.16365	1.21459
3739.19944	1.21054
3738.23524	1.19191
3737.27103	1.15837
3736.30682	1.12974
3735.34261	1.12601
3734.37840	1.14306
3733.41420	1.15069
3732.44999	1.13539
3731.48578	1.13675
3730.52157	1.16847
3729.55736	1.19021
3728.59315	1.19008
3727.62895	1.17702
3726.66474	1.16114
3725.70053	1.15735
3724.73632	1.16377
3723.77211	1.16469
3722.80790	1.15498
3721.84370	1.14950
3720.87949	1.15664
3719.91528	1.16048
3718.95107	1.15670
3717.98686	1.15690
3717.02266	1.16037
3716.05845	1.15862
3715.09424	1.15230
3714.13003	1.13925
3713.16582	1.10420
3712.20161	1.06525
3711.23741	1.06880
3710.27320	1.09040
3709.30899	1.09673
3708.34478	1.10868
3707.38057	1.12585
3706.41637	1.13124
3705.45216	1.12945
3704.48795	1.12696
3703.52374	1.11953
3702.55953	1.10174
3701.59532	1.08823
3700.63112	1.09521
3699.66691	1.10783
3698.70270	1.11108
3697.73849	1.10877
3696.77428	1.10567
3695.81007	1.10274
3694.84587	1.10030
3693.88166	1.09648
3692.91745	1.08530
3691.95324	1.06138
3690.98903	1.04120
3690.02483	1.02699
3689.06062	0.98977
3688.09641	0.96906
3687.13220	1.01317
3686.16799	1.06083
3685.20378	1.07319
3684.23958	1.07169
3683.27537	1.07023
3682.31116	1.06865
3681.34695	1.06394
3680.38274	1.05315
3679.41854	1.04226
3678.45433	1.03744
3677.49012	1.01698
3676.52591	0.95731
3675.56170	0.90610
3674.59749	0.92867
3673.63329	0.99112
3672.66908	1.01715
3671.70487	0.98498
3670.74066	0.93536
3669.77645	0.93328
3668.81224	0.96620
3667.84804	0.99635
3666.88383	1.01715
3665.91962	1.02488
3664.95541	1.02401
3663.99120	1.02185
3663.02700	1.01950
3662.06279	1.01698
3661.09858	1.01363
3660.13437	1.01021
3659.17016	1.00726
3658.20595	0.99845
3657.24175	0.97124
3656.27754	0.94370
3655.31333	0.95368
3654.34912	0.98078
3653.38491	0.98824
3652.42071	0.97038
3651.45650	0.93350
3650.49229	0.89121
3649.52808	0.86529
3648.56387	0.87042
3647.59966	0.89336
3646.63546	0.91902
3645.67125	0.94633
3644.70704	0.96429
3643.74283	0.96729
3642.77862	0.96371
3641.81442	0.96087
3640.85021	0.96026
3639.88600	0.95897
3638.92179	0.95528
3637.95758	0.95155
3636.99337	0.95029
3636.02917	0.94901
3635.06496	0.94174
3634.10075	0.93094
3633.13654	0.92794
3632.17233	0.93084
3631.20812	0.91637
3630.24392	0.86636
3629.27971	0.80990
3628.31550	0.81055
3627.35129	0.86156
3626.38708	0.90213
3625.42288	0.91615
3624.45867	0.91886
3623.49446	0.91780
3622.53025	0.91327
3621.56604	0.90211
3620.60183	0.87849
3619.63763	0.85450
3618.67342	0.85214
3617.70921	0.86585
3616.74500	0.87966
3615.78079	0.88518
3614.81659	0.88002
3613.85238	0.86860
3612.88817	0.85682
3611.92396	0.85793
3610.95975	0.86474
3609.99554	0.85100
3609.03134	0.83285
3608.06713	0.83868
3607.10292	0.85249
3606.13871	0.86230
3605.17450	0.87042
3604.21029	0.87257
3603.24609	0.86927
3602.28188	0.86386
3601.31767	0.85744
3600.35346	0.85360
3599.38925	0.85294
3598.42505	0.85213
3597.46084	0.85014
3596.49663	0.84447
3595.53242	0.83669
3594.56821	0.83401
3593.60400	0.83510
3592.63980	0.83697
3591.67559	0.84020
3590.71138	0.83819
3589.74717	0.82188
3588.78296	0.79868
3587.81876	0.78710
3586.85455	0.78880
3585.89034	0.79991
3584.92613	0.81534
3583.96192	0.82281
3582.99771	0.82283
3582.03351	0.82201
3581.06930	0.81988
3580.10509	0.81642
3579.14088	0.81421
3578.17667	0.81288
3577.21246	0.81063
3576.24826	0.80852
3575.28405	0.80657
3574.31984	0.80432
3573.35563	0.80300
3572.39142	0.80188
3571.42722	0.79933
3570.46301	0.79454
3569.49880	0.78302
3568.53459	0.76280
3567.57038	0.74663
3566.60617	0.74550
3565.64197	0.75552
3564.67776	0.76768
3563.71355	0.77378
3562.74934	0.77486
3561.78513	0.77465
3560.82093	0.77240
3559.85672	0.77013
3558.89251	0.77011
3557.92830	0.77004
3556.96409	0.76839
3555.99988	0.76658
3555.03568	0.76406
3554.07147	0.75959
3553.10726	0.75352
3552.14305	0.74885
3551.17884	0.74917
3550.21463	0.75140
3549.25043	0.75024
3548.28622	0.74421
3547.32201	0.73597
3546.35780	0.73050
3545.39359	0.72906
3544.42939	0.73023
3543.46518	0.73268
3542.50097	0.73447
3541.53676	0.73461
3540.57255	0.73337
3539.60834	0.73143
3538.64414	0.72908
3537.67993	0.72546
3536.71572	0.72082
3535.75151	0.71834
3534.78730	0.71850
3533.82310	0.71816
3532.85889	0.71604
3531.89468	0.71272
3530.93047	0.70883
3529.96626	0.70447
3529.00205	0.69985
3528.03785	0.69615
3527.07364	0.69403
3526.10943	0.69302
3525.14522	0.69170
3524.18101	0.68865
3523.21680	0.68531
3522.25260	0.68478
3521.28839	0.68613
3520.32418	0.68575
3519.35997	0.68331
3518.39576	0.68083
3517.43156	0.67910
3516.46735	0.67756
3515.50314	0.67561
3514.53893	0.67317
3513.57472	0.67044
3512.61051	0.66753
3511.64631	0.66429
3510.68210	0.65991
3509.71789	0.65504
3508.75368	0.65300
3507.78947	0.65380
3506.82527	0.65341
3505.86106	0.65035
3504.89685	0.64531
3503.93264	0.63929
3502.96843	0.63515
3502.00422	0.63475
3501.04002	0.63580
3500.07581	0.63561
3499.11160	0.63409
3498.14739	0.63153
3497.18318	0.62803
3496.21898	0.62480
3495.25477	0.62288
3494.29056	0.62155
3493.32635	0.61984
3492.36214	0.61764
3491.39793	0.61521
3490.43373	0.61272
3489.46952	0.60954
3488.50531	0.60564
3487.54110	0.60292
3486.57689	0.60176
3485.61268	0.60043
3484.64848	0.59839
3483.68427	0.59524
3482.72006	0.59075
3481.75585	0.58729
3480.79164	0.58632
3479.82744	0.58627
3478.86323	0.58576
3477.89902	0.58448
3476.93481	0.58243
3475.97060	0.57977
3475.00639	0.57720
3474.04219	0.57566
3473.07798	0.57469
3472.11377	0.57335
3471.14956	0.57161
3470.18535	0.56990
3469.22115	0.56837
3468.25694	0.56649
3467.29273	0.56419
3466.32852	0.56247
3465.36431	0.56154
3464.40010	0.56027
3463.43590	0.55798
3462.47169	0.55554
3461.50748	0.55413
3460.54327	0.55357
3459.57906	0.55287
3458.61485	0.55174
3457.65065	0.55045
3456.68644	0.54905
3455.72223	0.54752
3454.75802	0.54602
3453.79381	0.54464
3452.82961	0.54326
3451.86540	0.54175
3450.90119	0.54004
3449.93698	0.53809
3448.97277	0.53511
3448.00856	0.53017
3447.04436	0.52604
3446.08015	0.52612
3445.11594	0.52789
3444.15173	0.52757
3443.18752	0.52530
3442.22332	0.52338
3441.25911	0.52310
3440.29490	0.52322
3439.33069	0.52260
3438.36648	0.52171
3437.40227	0.52097
3436.43807	0.52042
3435.47386	0.51998
3434.50965	0.51952
3433.54544	0.51897
3432.58123	0.51845
3431.61702	0.51798
3430.65282	0.51768
3429.68861	0.51757
3428.72440	0.51733
3427.76019	0.51696
3426.79598	0.51679
3425.83178	0.51672
3424.86757	0.51639
3423.90336	0.51559
3422.93915	0.51432
3421.97494	0.51264
3421.01073	0.51097
3420.04653	0.51038
3419.08232	0.51115
3418.11811	0.51191
3417.15390	0.51186
3416.18969	0.51136
3415.22549	0.51071
3414.26128	0.50992
3413.29707	0.50900
3412.33286	0.50809
3411.36865	0.50730
3410.40444	0.50655
3409.44024	0.50579
3408.47603	0.50500
3407.51182	0.50420
3406.54761	0.50333
3405.58340	0.50229
3404.61919	0.50106
3403.65499	0.49985
3402.69078	0.49889
3401.72657	0.49805
3400.76236	0.49727
3399.79815	0.49657
3398.83395	0.49556
3397.86974	0.49400
3396.90553	0.49272
3395.94132	0.49239
3394.97711	0.49211
3394.01290	0.49079
3393.04870	0.48888
3392.08449	0.48801
3391.12028	0.48827
3390.15607	0.48823
3389.19186	0.48753
3388.22766	0.48661
3387.26345	0.48552
3386.29924	0.48419
3385.33503	0.48284
3384.37082	0.48185
3383.40661	0.48121
3382.44241	0.48065
3381.47820	0.47996
3380.51399	0.47913
3379.54978	0.47824
3378.58557	0.47728
3377.62137	0.47631
3376.65716	0.47538
3375.69295	0.47449
3374.72874	0.47358
3373.76453	0.47271
3372.80032	0.47189
3371.83612	0.47105
3370.87191	0.47011
3369.90770	0.46905
3368.94349	0.46783
3367.97928	0.46655
3367.01507	0.46536
3366.05087	0.46419
3365.08666	0.46320
3364.12245	0.46262
3363.15824	0.46204
3362.19403	0.46112
3361.22983	0.46021
3360.26562	0.45957
3359.30141	0.45900
3358.33720	0.45828
3357.37299	0.45722
3356.40878	0.45597
3355.44458	0.45505
3354.48037	0.45455
3353.51616	0.45409
3352.55195	0.45348
3351.58774	0.45272
3350.62354	0.45191
3349.65933	0.45109
3348.69512	0.45024
3347.73091	0.44937
3346.76670	0.44853
3345.80249	0.44771
3344.83829	0.44689
3343.87408	0.44603
3342.90987	0.44510
3341.94566	0.44415
3340.98145	0.44328
3340.01724	0.44253
3339.05304	0.44180
3338.08883	0.44074
3337.12462	0.43938
3336.16041	0.43842
3335.19620	0.43793
3334.23200	0.43742
3333.26779	0.43686
3332.30358	0.43619
3331.33937	0.43539
3330.37516	0.43457
3329.41095	0.43378
3328.44675	0.43296
3327.48254	0.43198
3326.51833	0.43098
3325.55412	0.43013
3324.58991	0.42941
3323.62571	0.42875
3322.66150	0.42811
3321.69729	0.42748
3320.73308	0.42678
3319.76887	0.42597
3318.80466	0.42515
3317.84046	0.42439
3316.87625	0.42367
3315.91204	0.42292
3314.94783	0.42205
3313.98362	0.42095
3313.01941	0.41996
3312.05521	0.41934
3311.09100	0.41882
3310.12679	0.41795
3309.16258	0.41681
3308.19837	0.41603
3307.23417	0.41586
3306.26996	0.41565
3305.30575	0.41506
3304.34154	0.41429
3303.37733	0.41352
3302.41312	0.41285
3301.44892	0.41219
3300.48471	0.41148
3299.52050	0.41073
3298.55629	0.40987
3297.59208	0.40900
3296.62788	0.40842
3295.66367	0.40803
3294.69946	0.40742
3293.73525	0.40653
3292.77104	0.40554
3291.80683	0.40472
3290.84263	0.40426
3289.87842	0.40390
3288.91421	0.40334
3287.95000	0.40282
3286.98579	0.40244
3286.02158	0.40196
3285.05738	0.40130
3284.09317	0.40048
3283.12896	0.39973
3282.16475	0.39924
3281.20054	0.39875
3280.23634	0.39804
3279.27213	0.39734
3278.30792	0.39668
3277.34371	0.39570
3276.37950	0.39472
3275.41529	0.39418
3274.45109	0.39353
3273.48688	0.39283
3272.52267	0.39269
3271.55846	0.39267
3270.59425	0.39230
3269.63005	0.39182
3268.66584	0.39131
3267.70163	0.39069
3266.73742	0.38998
3265.77321	0.38927
3264.80900	0.38865
3263.84480	0.38817
3262.88059	0.38771
3261.91638	0.38716
3260.95217	0.38651
3259.98796	0.38595
3259.02376	0.38547
3258.05955	0.38483
3257.09534	0.38415
3256.13113	0.38361
3255.16692	0.38283
3254.20271	0.38195
3253.23851	0.38168
3252.27430	0.38176
3251.31009	0.38152
3250.34588	0.38099
3249.38167	0.38044
3248.41746	0.37995
3247.45326	0.37945
3246.48905	0.37862
3245.52484	0.37742
3244.56063	0.37672
3243.59642	0.37687
3242.63222	0.37703
3241.66801	0.37672
3240.70380	0.37623
3239.73959	0.37583
3238.77538	0.37551
3237.81117	0.37501
3236.84697	0.37439
3235.88276	0.37406
3234.91855	0.37391
3233.95434	0.37351
3232.99013	0.37296
3232.02593	0.37260
3231.06172	0.37226
3230.09751	0.37184
3229.13330	0.37148
3228.16909	0.37112
3227.20488	0.37078
3226.24068	0.37069
3225.27647	0.37069
3224.31226	0.37057
3223.34805	0.37027
3222.38384	0.36986
3221.41963	0.36935
3220.45543	0.36866
3219.49122	0.36810
3218.52701	0.36813
3217.56280	0.36842
3216.59859	0.36840
3215.63439	0.36795
3214.67018	0.36724
3213.70597	0.36693
3212.74176	0.36725
3211.77755	0.36742
3210.81334	0.36694
3209.84914	0.36631
3208.88493	0.36624
3207.92072	0.36657
3206.95651	0.36673
3205.99230	0.36667
3205.02810	0.36660
3204.06389	0.36655
3203.09968	0.36652
3202.13547	0.36645
3201.17126	0.36632
3200.20705	0.36612
3199.24285	0.36574
3198.27864	0.36524
3197.31443	0.36508
3196.35022	0.36538
3195.38601	0.36575
3194.42180	0.36595
3193.45760	0.36600
3192.49339	0.36595
3191.52918	0.36587
3190.56497	0.36575
3189.60076	0.36561
3188.63656	0.36548
3187.67235	0.36537
3186.70814	0.36513
3185.74393	0.36470
3184.77972	0.36445
3183.81551	0.36457
3182.85131	0.36470
3181.88710	0.36463
3180.92289	0.36448
3179.95868	0.36415
3178.99447	0.36348
3178.03027	0.36293
3177.06606	0.36312
3176.10185	0.36356
3175.13764	0.36367
3174.17343	0.36359
3173.20922	0.36348
3172.24502	0.36335
3171.28081	0.36319
3170.31660	0.36301
3169.35239	0.36281
3168.38818	0.36259
3167.42397	0.36239
3166.45977	0.36222
3165.49556	0.36210
3164.53135	0.36201
3163.56714	0.36192
3162.60293	0.36182
3161.63873	0.36170
3160.67452	0.36160
3159.71031	0.36148
3158.74610	0.36128
3157.78189	0.36107
3156.81768	0.36097
3155.85348	0.36089
3154.88927	0.36075
3153.92506	0.36061
3152.96085	0.36050
3151.99664	0.36032
3151.03244	0.36009
3150.06823	0.35985
3149.10402	0.35963
3148.13981	0.35952
3147.17560	0.35948
3146.21139	0.35943
3145.24719	0.35934
3144.28298	0.35921
3143.31877	0.35903
3142.35456	0.35884
3141.39035	0.35859
3140.42615	0.35831
3139.46194	0.35820
3138.49773	0.35827
3137.53352	0.35829
3136.56931	0.35821
3135.60510	0.35806
3134.64090	0.35767
3133.67669	0.35698
3132.71248	0.35647
3131.74827	0.35648
3130.78406	0.35678
3129.81985	0.35703
3128.85565	0.35706
3127.89144	0.35679
3126.92723	0.35642
3125.96302	0.35625
3124.99881	0.35628
3124.03461	0.35589
3123.07040	0.35493
3122.10619	0.35453
3121.14198	0.35518
3120.17777	0.35563
3119.21356	0.35535
3118.24936	0.35512
3117.28515	0.35511
3116.32094	0.35486
3115.35673	0.35451
3114.39252	0.35419
3113.42832	0.35390
3112.46411	0.35412
3111.49990	0.35467
3110.53569	0.35491
3109.57148	0.35484
3108.60727	0.35468
3107.64307	0.35451
3106.67886	0.35433
3105.71465	0.35386
3104.75044	0.35304
3103.78623	0.35261
3102.82202	0.35278
3101.85782	0.35282
3100.89361	0.35264
3099.92940	0.35265
3098.96519	0.35287
3098.00098	0.35296
3097.03678	0.35237
3096.07257	0.35111
3095.10836	0.35044
3094.14415	0.35109
3093.17994	0.35202
3092.21573	0.35237
3091.25153	0.35236
3090.28732	0.35225
3089.32311	0.35209
3088.35890	0.35178
3087.39469	0.35094
3086.43049	0.34970
3085.46628	0.34929
3084.50207	0.35003
3083.53786	0.35053
3082.57365	0.35028
3081.60944	0.34988
3080.64524	0.34955
3079.68103	0.34921
3078.71682	0.34889
3077.75261	0.34837
3076.78840	0.34778
3075.82419	0.34781
3074.85999	0.34825
3073.89578	0.34837
3072.93157	0.34818
3071.96736	0.34792
3071.00315	0.34766
3070.03895	0.34739
3069.07474	0.34682
3068.11053	0.34557
3067.14632	0.34440
3066.18211	0.34444
3065.21790	0.34492
3064.25370	0.34497
3063.28949	0.34509
3062.32528	0.34526
3061.36107	0.34510
3060.39686	0.34476
3059.43266	0.34426
3058.46845	0.34338
3057.50424	0.34250
3056.54003	0.34236
3055.57582	0.34282
3054.61161	0.34321
3053.64741	0.34328
3052.68320	0.34312
3051.71899	0.34293
3050.75478	0.34266
3049.79057	0.34212
3048.82636	0.34146
3047.86216	0.34124
3046.89795	0.34146
3045.93374	0.34156
3044.96953	0.34137
3044.00532	0.34112
3043.04112	0.34091
3042.07691	0.34068
3041.11270	0.34039
3040.14849	0.34004
3039.18428	0.33960
3038.22007	0.33922
3037.25587	0.33898
3036.29166	0.33870
3035.32745	0.33829
3034.36324	0.33794
3033.39903	0.33770
3032.43483	0.33725
3031.47062	0.33674
3030.50641	0.33669
3029.54220	0.33698
3028.57799	0.33716
3027.61378	0.33717
3026.64958	0.33700
3025.68537	0.33677
3024.72116	0.33668
3023.75695	0.33664
3022.79274	0.33648
3021.82853	0.33626
3020.86433	0.33599
3019.90012	0.33520
3018.93591	0.33327
3017.97170	0.33091
3017.00749	0.32977
3016.04329	0.33013
3015.07908	0.33108
3014.11487	0.33183
3013.15066	0.33208
3012.18645	0.33215
3011.22224	0.33231
3010.25804	0.33235
3009.29383	0.33226
3008.32962	0.33213
3007.36541	0.33192
3006.40120	0.33160
3005.43700	0.33119
3004.47279	0.33077
3003.50858	0.33047
3002.54437	0.33027
3001.58016	0.33001
3000.61595	0.32962
2999.65175	0.32914
2998.68754	0.32871
2997.72333	0.32838
2996.75912	0.32800
2995.79491	0.32745
2994.83071	0.32683
2993.86650	0.32628
2992.90229	0.32582
2991.93808	0.32533
2990.97387	0.32475
2990.00966	0.32391
2989.04546	0.32293
2988.08125	0.32228
2987.11704	0.32197
2986.15283	0.32156
2985.18862	0.32093
2984.22441	0.32017
2983.26021	0.31934
2982.29600	0.31847
2981.33179	0.31755
2980.36758	0.31643
2979.40337	0.31508
2978.43917	0.31396
2977.47496	0.31327
2976.51075	0.31253
2975.54654	0.31142
2974.58233	0.31015
2973.61812	0.30885
2972.65392	0.30755
2971.68971	0.30619
2970.72550	0.30465
2969.76129	0.30280
2968.79708	0.30091
2967.83288	0.29945
2966.86867	0.29832
2965.90446	0.29716
2964.94025	0.29606
2963.97604	0.29515
2963.01183	0.29435
2962.04763	0.29364
2961.08342	0.29305
2960.11921	0.29241
2959.15500	0.29159
2958.19079	0.29113
2957.22658	0.29154
2956.26238	0.29228
2955.29817	0.29276
2954.33396	0.29311
2953.36975	0.29347
2952.40554	0.29382
2951.44134	0.29408
2950.47713	0.29419
2949.51292	0.29397
2948.54871	0.29348
2947.58450	0.29326
2946.62029	0.29342
2945.65609	0.29340
2944.69188	0.29301
2943.72767	0.29242
2942.76346	0.29170
2941.79925	0.29090
2940.83505	0.29002
2939.87084	0.28897
2938.90663	0.28761
2937.94242	0.28616
2936.97821	0.28504
2936.01400	0.28419
2935.04980	0.28320
2934.08559	0.28200
2933.12138	0.28077
2932.15717	0.27958
2931.19296	0.27837
2930.22875	0.27715
2929.26455	0.27591
2928.30034	0.27456
2927.33613	0.27325
2926.37192	0.27230
2925.40771	0.27165
2924.44351	0.27098
2923.47930	0.27028
2922.51509	0.26957
2921.55088	0.26886
2920.58667	0.26815
2919.62246	0.26750
2918.65826	0.26691
2917.69405	0.26655
2916.72984	0.26680
2915.76563	0.26801
2914.80142	0.27005
2913.83722	0.27251
2912.87301	0.27509
2911.90880	0.27750
2910.94459	0.27952
2909.98038	0.28109
2909.01617	0.28232
2908.05197	0.28325
2907.08776	0.28395
2906.12355	0.28459
2905.15934	0.28527
2904.19513	0.28592
2903.23092	0.28646
2902.26672	0.28687
2901.30251	0.28722
2900.33830	0.28755
2899.37409	0.28785
2898.40988	0.28812
2897.44568	0.28831
2896.48147	0.28846
2895.51726	0.28867
2894.55305	0.28892
2893.58884	0.28917
2892.62463	0.28936
2891.66043	0.28949
2890.69622	0.28961
2889.73201	0.28974
2888.76780	0.28984
2887.80359	0.28989
2886.83939	0.28989
2885.87518	0.28987
2884.91097	0.28984
2883.94676	0.28981
2882.98255	0.28974
2882.01834	0.28961
2881.05414	0.28941
2880.08993	0.28915
2879.12572	0.28885
2878.16151	0.28853
2877.19730	0.28817
2876.23310	0.28781
2875.26889	0.28743
2874.30468	0.28706
2873.34047	0.28675
2872.37626	0.28648
2871.41205	0.28622
2870.44785	0.28597
2869.48364	0.28573
2868.51943	0.28551
2867.55522	0.28531
2866.59101	0.28510
2865.62680	0.28486
2864.66260	0.28459
2863.69839	0.28431
2862.73418	0.28401
2861.76997	0.28365
2860.80576	0.28321
2859.84156	0.28270
2858.87735	0.28214
2857.91314	0.28155
2856.94893	0.28094
2855.98472	0.28027
2855.02051	0.27952
2854.05631	0.27873
2853.09210	0.27785
2852.12789	0.27687
2851.16368	0.27588
2850.19947	0.27518
2849.23527	0.27516
2848.27106	0.27608
2847.30685	0.27789
2846.34264	0.28018
2845.37843	0.28245
2844.41422	0.28442
2843.45002	0.28603
2842.48581	0.28731
2841.52160	0.28831
2840.55739	0.28913
2839.59318	0.28981
2838.62897	0.29037
2837.66477	0.29082
2836.70056	0.29120
2835.73635	0.29150
2834.77214	0.29172
2833.80793	0.29189
2832.84373	0.29204
2831.87952	0.29218
2830.91531	0.29231
2829.95110	0.29240
2828.98689	0.29247
2828.02268	0.29252
2827.05848	0.29254
2826.09427	0.29255
2825.13006	0.29255
2824.16585	0.29255
2823.20164	0.29255
2822.23744	0.29253
2821.27323	0.29250
2820.30902	0.29247
2819.34481	0.29243
2818.38060	0.29241
2817.41639	0.29241
2816.45219	0.29239
2815.48798	0.29236
2814.52377	0.29232
2813.55956	0.29227
2812.59535	0.29223
2811.63114	0.29218
2810.66694	0.29212
2809.70273	0.29207
2808.73852	0.29204
2807.77431	0.29202
2806.81010	0.29199
2805.84590	0.29196
2804.88169	0.29194
2803.91748	0.29189
2802.95327	0.29184
2801.98906	0.29181
2801.02485	0.29176
2800.06065	0.29169
2799.09644	0.29163
2798.13223	0.29162
2797.16802	0.29162
2796.20381	0.29161
2795.23961	0.29159
2794.27540	0.29156
2793.31119	0.29152
2792.34698	0.29147
2791.38277	0.29143
2790.41856	0.29141
2789.45436	0.29141
2788.49015	0.29142
2787.52594	0.29140
2786.56173	0.29137
2785.59752	0.29134
2784.63331	0.29131
2783.66911	0.29129
2782.70490	0.29124
2781.74069	0.29117
2780.77648	0.29112
2779.81227	0.29108
2778.84807	0.29103
2777.88386	0.29097
2776.91965	0.29090
2775.95544	0.29083
2774.99123	0.29076
2774.02702	0.29068
2773.06282	0.29060
2772.09861	0.29054
2771.13440	0.29049
2770.17019	0.29042
2769.20598	0.29035
2768.24178	0.29026
2767.27757	0.29015
2766.31336	0.29005
2765.34915	0.28997
2764.38494	0.28990
2763.42073	0.28982
2762.45653	0.28973
2761.49232	0.28964
2760.52811	0.28954
2759.56390	0.28943
2758.59969	0.28932
2757.63549	0.28921
2756.67128	0.28911
2755.70707	0.28903
2754.74286	0.28895
2753.77865	0.28886
2752.81444	0.28876
2751.85024	0.28867
2750.88603	0.28858
2749.92182	0.28850
2748.95761	0.28842
2747.99340	0.28834
2747.02919	0.28827
2746.06499	0.28817
2745.10078	0.28804
2744.13657	0.28793
2743.17236	0.28785
2742.20815	0.28776
2741.24395	0.28766
2740.27974	0.28757
2739.31553	0.28748
2738.35132	0.28741
2737.38711	0.28733
2736.42290	0.28723
2735.45870	0.28713
2734.49449	0.28702
2733.53028	0.28692
2732.56607	0.28683
2731.60186	0.28675
2730.63766	0.28669
2729.67345	0.28662
2728.70924	0.28654
2727.74503	0.28643
2726.78082	0.28632
2725.81661	0.28625
2724.85241	0.28620
2723.88820	0.28613
2722.92399	0.28606
2721.95978	0.28599
2720.99557	0.28590
2720.03136	0.28582
2719.06716	0.28576
2718.10295	0.28570
2717.13874	0.28566
2716.17453	0.28562
2715.21032	0.28556
2714.24612	0.28547
2713.28191	0.28536
2712.31770	0.28527
2711.35349	0.28522
2710.38928	0.28518
2709.42507	0.28512
2708.46087	0.28503
2707.49666	0.28498
2706.53245	0.28492
2705.56824	0.28483
2704.60403	0.28475
2703.63983	0.28469
2702.67562	0.28464
2701.71141	0.28458
2700.74720	0.28450
2699.78299	0.28442
2698.81878	0.28435
2697.85458	0.28429
2696.89037	0.28424
2695.92616	0.28417
2694.96195	0.28410
2693.99774	0.28403
2693.03353	0.28396
2692.06933	0.28389
2691.10512	0.28383
2690.14091	0.28377
2689.17670	0.28371
2688.21249	0.28364
2687.24829	0.28357
2686.28408	0.28350
2685.31987	0.28342
2684.35566	0.28335
2683.39145	0.28330
2682.42724	0.28325
2681.46304	0.28318
2680.49883	0.28310
2679.53462	0.28302
2678.57041	0.28294
2677.60620	0.28287
2676.64200	0.28281
2675.67779	0.28275
2674.71358	0.28268
2673.74937	0.28261
2672.78516	0.28254
2671.82095	0.28246
2670.85675	0.28239
2669.89254	0.28233
2668.92833	0.28226
2667.96412	0.28218
2666.99991	0.28211
2666.03570	0.28204
2665.07150	0.28199
2664.10729	0.28193
2663.14308	0.28189
2662.17887	0.28185
2661.21466	0.28180
2660.25046	0.28175
2659.28625	0.28169
2658.32204	0.28161
2657.35783	0.28153
2656.39362	0.28147
2655.42941	0.28141
2654.46521	0.28135
2653.50100	0.28130
2652.53679	0.28125
2651.57258	0.28119
2650.60837	0.28113
2649.64417	0.28108
2648.67996	0.28103
2647.71575	0.28097
2646.75154	0.28091
2645.78733	0.28084
2644.82312	0.28080
2643.85892	0.28075
2642.89471	0.28068
2641.93050	0.28063
2640.96629	0.28060
2640.00208	0.28055
2639.03788	0.28050
2638.07367	0.28046
2637.10946	0.28040
2636.14525	0.28033
2635.18104	0.28027
2634.21683	0.28023
2633.25263	0.28019
2632.28842	0.28014
2631.32421	0.28007
2630.36000	0.28001
2629.39579	0.27997
2628.43158	0.27993
2627.46738	0.27989
2626.50317	0.27982
2625.53896	0.27975
2624.57475	0.27969
2623.61054	0.27965
2622.64634	0.27960
2621.68213	0.27956
2620.71792	0.27952
2619.75371	0.27948
2618.78950	0.27943
2617.82529	0.27939
2616.86109	0.27934
2615.89688	0.27930
2614.93267	0.27925
2613.96846	0.27918
2613.00425	0.27913
2612.04005	0.27909
2611.07584	0.27904
2610.11163	0.27900
2609.14742	0.27896
2608.18321	0.27892
2607.21900	0.27888
2606.25480	0.27882
2605.29059	0.27875
2604.32638	0.27869
2603.36217	0.27866
2602.39796	0.27862
2601.43375	0.27856
2600.46955	0.27852
2599.50534	0.27850
2598.54113	0.27846
2597.57692	0.27840
2596.61271	0.27832
2595.64851	0.27827
2594.68430	0.27825
2593.72009	0.27822
2592.75588	0.27816
2591.79167	0.27809
2590.82746	0.27804
2589.86326	0.27800
2588.89905	0.27797
2587.93484	0.27793
2586.97063	0.27789
2586.00642	0.27785
2585.04222	0.27782
2584.07801	0.27780
2583.11380	0.27775
2582.14959	0.27770
2581.18538	0.27766
2580.22117	0.27763
2579.25697	0.27760
2578.29276	0.27757
2577.32855	0.27751
2576.36434	0.27745
2575.40013	0.27741
2574.43592	0.27737
2573.47172	0.27733
2572.50751	0.27727
2571.54330	0.27722
2570.57909	0.27720
2569.61488	0.27718
2568.65068	0.27715
2567.68647	0.27710
2566.72226	0.27705
2565.75805	0.27699
2564.79384	0.27694
2563.82963	0.27691
2562.86543	0.27686
2561.90122	0.27681
2560.93701	0.27678
2559.97280	0.27677
2559.00859	0.27675
2558.04439	0.27670
2557.08018	0.27666
2556.11597	0.27661
2555.15176	0.27656
2554.18755	0.27653
2553.22334	0.27651
2552.25914	0.27647
2551.29493	0.27642
2550.33072	0.27639
2549.36651	0.27636
2548.40230	0.27633
2547.43809	0.27632
2546.47389	0.27631
2545.50968	0.27626
2544.54547	0.27621
2543.58126	0.27618
2542.61705	0.27615
2541.65285	0.27611
2540.68864	0.27608
2539.72443	0.27608
2538.76022	0.27608
2537.79601	0.27606
2536.83180	0.27602
2535.86760	0.27600
2534.90339	0.27599
2533.93918	0.27596
2532.97497	0.27594
2532.01076	0.27591
2531.04656	0.27589
2530.08235	0.27588
2529.11814	0.27587
2528.15393	0.27585
2527.18972	0.27584
2526.22551	0.27582
2525.26131	0.27578
2524.29710	0.27574
2523.33289	0.27571
2522.36868	0.27569
2521.40447	0.27567
2520.44026	0.27566
2519.47606	0.27564
2518.51185	0.27564
2517.54764	0.27564
2516.58343	0.27563
2515.61922	0.27559
2514.65502	0.27555
2513.69081	0.27554
2512.72660	0.27554
2511.76239	0.27553
2510.79818	0.27550
2509.83397	0.27546
2508.86977	0.27543
2507.90556	0.27542
2506.94135	0.27540
2505.97714	0.27536
2505.01293	0.27532
2504.04873	0.27529
2503.08452	0.27529
2502.12031	0.27529
2501.15610	0.27528
2500.19189	0.27525
2499.22768	0.27523
2498.26348	0.27522
2497.29927	0.27519
2496.33506	0.27516
2495.37085	0.27514
2494.40664	0.27513
2493.44244	0.27513
2492.47823	0.27512
2491.51402	0.27510
2490.54981	0.27507
2489.58560	0.27505
2488.62139	0.27503
2487.65719	0.27504
2486.69298	0.27505
2485.72877	0.27504
2484.76456	0.27502
2483.80035	0.27502
2482.83614	0.27503
2481.87194	0.27501
2480.90773	0.27498
2479.94352	0.27496
2478.97931	0.27495
2478.01510	0.27494
2477.05090	0.27493
2476.08669	0.27493
2475.12248	0.27492
2474.15827	0.27491
2473.19406	0.27492
2472.22985	0.27493
2471.26565	0.27493
2470.30144	0.27492
2469.33723	0.27492
2468.37302	0.27492
2467.40881	0.27491
2466.44461	0.27489
2465.48040	0.27488
2464.51619	0.27488
2463.55198	0.27488
2462.58777	0.27488
2461.62356	0.27488
2460.65936	0.27488
2459.69515	0.27489
2458.73094	0.27489
2457.76673	0.27489
2456.80252	0.27488
2455.83831	0.27490
2454.87411	0.27492
2453.90990	0.27491
2452.94569	0.27488
2451.98148	0.27485
2451.01727	0.27484
2450.05307	0.27483
2449.08886	0.27485
2448.12465	0.27488
2447.16044	0.27487
2446.19623	0.27486
2445.23202	0.27485
2444.26782	0.27486
2443.30361	0.27486
2442.33940	0.27486
2441.37519	0.27484
2440.41098	0.27484
2439.44678	0.27485
2438.48257	0.27487
2437.51836	0.27487
2436.55415	0.27485
2435.58994	0.27483
2434.62573	0.27484
2433.66153	0.27485
2432.69732	0.27485
2431.73311	0.27483
2430.76890	0.27482
2429.80469	0.27483
2428.84048	0.27484
2427.87628	0.27485
2426.91207	0.27486
2425.94786	0.27488
2424.98365	0.27490
2424.01944	0.27493
2423.05524	0.27495
2422.09103	0.27496
2421.12682	0.27498
2420.16261	0.27500
2419.19840	0.27500
2418.23419	0.27499
2417.26999	0.27500
2416.30578	0.27503
2415.34157	0.27507
2414.37736	0.27513
2413.41315	0.27515
2412.44895	0.27515
2411.48474	0.27516
2410.52053	0.27517
2409.55632	0.27516
2408.59211	0.27514
2407.62790	0.27513
2406.66370	0.27514
2405.69949	0.27516
2404.73528	0.27517
2403.77107	0.27520
2402.80686	0.27524
2401.84265	0.27527
2400.87845	0.27527
2399.91424	0.27526
2398.95003	0.27526
2397.98582	0.27527
2397.02161	0.27529
2396.05741	0.27531
2395.09320	0.27533
2394.12899	0.27533
2393.16478	0.27535
2392.20057	0.27536
2391.23636	0.27536
2390.27216	0.27535
2389.30795	0.27534
2388.34374	0.27531
2387.37953	0.27526
2386.41532	0.27516
2385.45112	0.27499
2384.48691	0.27473
2383.52270	0.27436
2382.55849	0.27385
2381.59428	0.27313
2380.63007	0.27217
2379.66587	0.27093
2378.70166	0.26942
2377.73745	0.26760
2376.77324	0.26541
2375.80903	0.26286
2374.84483	0.25997
2373.88062	0.25677
2372.91641	0.25329
2371.95220	0.24957
2370.98799	0.24567
2370.02378	0.24170
2369.05958	0.23778
2368.09537	0.23402
2367.13116	0.23049
2366.16695	0.22729
2365.20274	0.22453
2364.23853	0.22232
2363.27433	0.22074
2362.31012	0.21982
2361.34591	0.21962
2360.38170	0.22018
2359.41749	0.22150
2358.45329	0.22358
2357.48908	0.22640
2356.52487	0.22990
2355.56066	0.23398
2354.59645	0.23866
2353.63224	0.24387
2352.66804	0.24940
2351.70383	0.25508
2350.73962	0.26067
2349.77541	0.26513
2348.81120	0.26654
2347.84700	0.26425
2346.88279	0.25987
2345.91858	0.25527
2344.95437	0.25112
2343.99016	0.24754
2343.02595	0.24456
2342.06175	0.24216
2341.09754	0.24031
2340.13333	0.23900
2339.16912	0.23824
2338.20491	0.23787
2337.24070	0.23765
2336.27650	0.23768
2335.31229	0.23813
2334.34808	0.23877
2333.38387	0.23945
2332.41966	0.24027
2331.45546	0.24128
2330.49125	0.24251
2329.52704	0.24395
2328.56283	0.24555
2327.59862	0.24724
2326.63441	0.24896
2325.67021	0.25064
2324.70600	0.25229
2323.74179	0.25394
2322.77758	0.25562
2321.81337	0.25729
2320.84917	0.25892
2319.88496	0.26051
2318.92075	0.26204
2317.95654	0.26348
2316.99233	0.26483
2316.02812	0.26609
2315.06392	0.26725
2314.09971	0.26831
2313.13550	0.26930
2312.17129	0.27024
2311.20708	0.27110
2310.24287	0.27189
2309.27867	0.27259
2308.31446	0.27321
2307.35025	0.27378
2306.38604	0.27430
2305.42183	0.27478
2304.45763	0.27519
2303.49342	0.27556
2302.52921	0.27589
2301.56500	0.27620
2300.60079	0.27646
2299.63658	0.27669
2298.67238	0.27690
2297.70817	0.27709
2296.74396	0.27729
2295.77975	0.27748
2294.81554	0.27764
2293.85134	0.27778
2292.88713	0.27793
2291.92292	0.27808
2290.95871	0.27822
2289.99450	0.27837
2289.03029	0.27851
2288.06609	0.27866
2287.10188	0.27881
2286.13767	0.27893
2285.17346	0.27905
2284.20925	0.27918
2283.24504	0.27929
2282.28084	0.27934
2281.31663	0.27934
2280.35242	0.27936
2279.38821	0.27938
2278.42400	0.27942
2277.45980	0.27946
2276.49559	0.27951
2275.53138	0.27954
2274.56717	0.27956
2273.60296	0.27961
2272.63875	0.27967
2271.67455	0.27973
2270.71034	0.27979
2269.74613	0.27984
2268.78192	0.27989
2267.81771	0.27995
2266.85351	0.28003
2265.88930	0.28010
2264.92509	0.28017
2263.96088	0.28025
2262.99667	0.28032
2262.03246	0.28039
2261.06826	0.28044
2260.10405	0.28051
2259.13984	0.28059
2258.17563	0.28067
2257.21142	0.28073
2256.24722	0.28076
2255.28301	0.28080
2254.31880	0.28086
2253.35459	0.28093
2252.39038	0.28100
2251.42617	0.28106
2250.46197	0.28114
2249.49776	0.28121
2248.53355	0.28124
2247.56934	0.28126
2246.60513	0.28129
2245.64092	0.28134
2244.67672	0.28139
2243.71251	0.28145
2242.74830	0.28149
2241.78409	0.28152
2240.81988	0.28157
2239.85568	0.28162
2238.89147	0.28167
2237.92726	0.28173
2236.96305	0.28179
2235.99884	0.28185
2235.03463	0.28192
2234.07043	0.28200
2233.10622	0.28209
2232.14201	0.28218
2231.17780	0.28228
2230.21359	0.28236
2229.24939	0.28245
2228.28518	0.28255
2227.32097	0.28267
2226.35676	0.28279
2225.39255	0.28291
2224.42834	0.28300
2223.46414	0.28306
2222.49993	0.28312
2221.53572	0.28317
2220.57151	0.28321
2219.60730	0.28326
2218.64309	0.28329
2217.67889	0.28334
2216.71468	0.28341
2215.75047	0.28348
2214.78626	0.28353
2213.82205	0.28357
2212.85785	0.28363
2211.89364	0.28370
2210.92943	0.28376
2209.96522	0.28381
2209.00101	0.28390
2208.03680	0.28401
2207.07260	0.28410
2206.10839	0.28417
2205.14418	0.28424
2204.17997	0.28430
2203.21576	0.28438
2202.25156	0.28447
2201.28735	0.28456
2200.32314	0.28463
2199.35893	0.28471
2198.39472	0.28481
2197.43051	0.28489
2196.46631	0.28497
2195.50210	0.28505
2194.53789	0.28513
2193.57368	0.28522
2192.60947	0.28534
2191.64526	0.28546
2190.68106	0.28553
2189.71685	0.28560
2188.75264	0.28569
2187.78843	0.28578
2186.82422	0.28585
2185.86002	0.28595
2184.89581	0.28606
2183.93160	0.28615
2182.96739	0.28623
2182.00318	0.28633
2181.03897	0.28643
2180.07477	0.28651
2179.11056	0.28662
2178.14635	0.28673
2177.18214	0.28680
2176.21793	0.28686
2175.25373	0.28695
2174.28952	0.28706
2173.32531	0.28714
2172.36110	0.28722
2171.39689	0.28731
2170.43268	0.28737
2169.46848	0.28745
2168.50427	0.28759
2167.54006	0.28774
2166.57585	0.28783
2165.61164	0.28790
2164.64743	0.28800
2163.68323	0.28811
2162.71902	0.28819
2161.75481	0.28826
2160.79060	0.28837
2159.82639	0.28850
2158.86219	0.28859
2157.89798	0.28865
2156.93377	0.28875
2155.96956	0.28885
2155.00535	0.28895
2154.04114	0.28906
2153.07694	0.28917
2152.11273	0.28925
2151.14852	0.28935
2150.18431	0.28947
2149.22010	0.28959
2148.25590	0.28967
2147.29169	0.28973
2146.32748	0.28980
2145.36327	0.28990
2144.39906	0.29000
2143.43485	0.29010
2142.47065	0.29020
2141.50644	0.29030
2140.54223	0.29039
2139.57802	0.29047
2138.61381	0.29056
2137.64961	0.29064
2136.68540	0.29071
2135.72119	0.29082
2134.75698	0.29097
2133.79277	0.29109
2132.82856	0.29118
2131.86436	0.29127
2130.90015	0.29139
2129.93594	0.29151
2128.97173	0.29160
2128.00752	0.29167
2127.04331	0.29177
2126.07911	0.29188
2125.11490	0.29196
2124.15069	0.29201
2123.18648	0.29210
2122.22227	0.29223
2121.25807	0.29235
2120.29386	0.29245
2119.32965	0.29254
2118.36544	0.29267
2117.40123	0.29279
2116.43702	0.29288
2115.47282	0.29293
2114.50861	0.29303
2113.54440	0.29318
2112.58019	0.29331
2111.61598	0.29342
2110.65178	0.29352
2109.68757	0.29363
2108.72336	0.29371
2107.75915	0.29379
2106.79494	0.29391
2105.83073	0.29405
2104.86653	0.29416
2103.90232	0.29425
2102.93811	0.29434
2101.97390	0.29446
2101.00969	0.29457
2100.04548	0.29465
2099.08128	0.29475
2098.11707	0.29488
2097.15286	0.29499
2096.18865	0.29509
2095.22444	0.29516
2094.26024	0.29524
2093.29603	0.29535
2092.33182	0.29547
2091.36761	0.29550
2090.40340	0.29547
2089.43919	0.29556
2088.47499	0.29577
2087.51078	0.29594
2086.54657	0.29605
2085.58236	0.29616
2084.61815	0.29629
2083.65395	0.29640
2082.68974	0.29649
2081.72553	0.29657
2080.76132	0.29669
2079.79711	0.29681
2078.83290	0.29690
2077.86870	0.29700
2076.90449	0.29712
2075.94028	0.29723
2074.97607	0.29731
2074.01186	0.29741
2073.04765	0.29756
2072.08345	0.29772
2071.11924	0.29786
2070.15503	0.29798
2069.19082	0.29811
2068.22661	0.29821
2067.26241	0.29824
2066.29820	0.29809
2065.33399	0.29791
2064.36978	0.29806
2063.40557	0.29851
2062.44136	0.29884
2061.47716	0.29896
2060.51295	0.29904
2059.54874	0.29919
2058.58453	0.29936
2057.62032	0.29950
2056.65612	0.29962
2055.69191	0.29971
2054.72770	0.29981
2053.76349	0.29992
2052.79928	0.30004
2051.83507	0.30017
2050.87087	0.30030
2049.90666	0.30043
2048.94245	0.30055
2047.97824	0.30065
2047.01403	0.30074
2046.04982	0.30085
2045.08562	0.30095
2044.12141	0.30102
2043.15720	0.30106
2042.19299	0.30098
2041.22878	0.30098
2040.26458	0.30128
2039.30037	0.30166
2038.33616	0.30186
2037.37195	0.30197
2036.40774	0.30209
2035.44353	0.30222
2034.47933	0.30234
2033.51512	0.30245
2032.55091	0.30257
2031.58670	0.30268
2030.62249	0.30279
2029.65829	0.30291
2028.69408	0.30304
2027.72987	0.30313
2026.76566	0.30322
2025.80145	0.30336
2024.83724	0.30351
2023.87304	0.30360
2022.90883	0.30369
2021.94462	0.30381
2020.98041	0.30393
2020.01620	0.30395
2019.05199	0.30382
2018.08779	0.30351
2017.12358	0.30325
2016.15937	0.30356
2015.19516	0.30429
2014.23095	0.30478
2013.26675	0.30494
2012.30254	0.30503
2011.33833	0.30513
2010.37412	0.30524
2009.40991	0.30534
2008.44570	0.30542
2007.48150	0.30553
2006.51729	0.30570
2005.55308	0.30587
2004.58887	0.30599
2003.62466	0.30609
2002.66046	0.30619
2001.69625	0.30630
2000.73204	0.30639
1999.76783	0.30642
1998.80362	0.30646
1997.83941	0.30660
1996.87521	0.30680
1995.91100	0.30694
1994.94679	0.30697
1993.98258	0.30663
1993.01837	0.30552
1992.05417	0.30457
1991.08996	0.30524
1990.12575	0.30659
1989.16154	0.30701
1988.19733	0.30698
1987.23312	0.30733
1986.26892	0.30775
1985.30471	0.30796
1984.34050	0.30805
1983.37629	0.30815
1982.41208	0.30825
1981.44787	0.30834
1980.48367	0.30844
1979.51946	0.30854
1978.55525	0.30863
1977.59104	0.30871
1976.62683	0.30880
1975.66263	0.30891
1974.69842	0.30902
1973.73421	0.30913
1972.77000	0.30925
1971.80579	0.30935
1970.84158	0.30943
1969.87738	0.30944
1968.91317	0.30906
1967.94896	0.30823
1966.98475	0.30788
1966.02054	0.30859
1965.05634	0.30954
1964.09213	0.31007
1963.12792	0.31026
1962.16371	0.31032
1961.19950	0.31037
1960.23529	0.31050
1959.27109	0.31068
1958.30688	0.31083
1957.34267	0.31093
1956.37846	0.31095
1955.41425	0.31095
1954.45004	0.31109
1953.48584	0.31137
1952.52163	0.31160
1951.55742	0.31173
1950.59321	0.31184
1949.62900	0.31196
1948.66480	0.31207
1947.70059	0.31204
1946.73638	0.31183
1945.77217	0.31172
1944.80796	0.31171
1943.84375	0.31061
1942.87955	0.30875
1941.91534	0.30901
1940.95113	0.31136
1939.98692	0.31301
1939.02271	0.31346
1938.05851	0.31362
1937.09430	0.31376
1936.13009	0.31390
1935.16588	0.31403
1934.20167	0.31412
1933.23746	0.31419
1932.27326	0.31433
1931.30905	0.31454
1930.34484	0.31472
1929.38063	0.31489
1928.41642	0.31502
1927.45221	0.31513
1926.48801	0.31527
1925.52380	0.31528
1924.55959	0.31458
1923.59538	0.31311
1922.63117	0.31258
1921.66697	0.31388
1920.70276	0.31527
1919.73855	0.31433
1918.77434	0.31062
1917.81013	0.30865
1916.84592	0.31170
1915.88172	0.31545
1914.91751	0.31675
1913.95330	0.31696
1912.98909	0.31710
1912.02488	0.31705
1911.06068	0.31651
1910.09647	0.31587
1909.13226	0.31592
1908.16805	0.31648
1907.20384	0.31714
1906.23963	0.31774
1905.27543	0.31803
1904.31122	0.31811
1903.34701	0.31827
1902.38280	0.31847
1901.41859	0.31865
1900.45438	0.31881
1899.49018	0.31894
1898.52597	0.31904
1897.56176	0.31908
1896.59755	0.31867
1895.63334	0.31793
1894.66914	0.31793
1893.70493	0.31884
1892.74072	0.31959
1891.77651	0.31948
1890.81230	0.31777
1889.84809	0.31550
1888.88389	0.31596
1887.91968	0.31865
1886.95547	0.32036
1885.99126	0.32063
1885.02705	0.32057
1884.06285	0.32072
1883.09864	0.32110
1882.13443	0.32144
1881.17022	0.32161
1880.20601	0.32169
1879.24180	0.32179
1878.27760	0.32198
1877.31339	0.32220
1876.34918	0.32237
1875.38497	0.32251
1874.42076	0.32266
1873.45656	0.32279
1872.49235	0.32279
1871.52814	0.32190
1870.56393	0.31835
1869.59972	0.31341
1868.63551	0.31241
1867.67131	0.31590
1866.70710	0.31961
1865.74289	0.32204
1864.77868	0.32355
1863.81447	0.32427
1862.85026	0.32448
1861.88606	0.32455
1860.92185	0.32466
1859.95764	0.32483
1858.99343	0.32494
1858.02922	0.32513
1857.06502	0.32547
1856.10081	0.32575
1855.13660	0.32596
1854.17239	0.32614
1853.20818	0.32628
1852.24397	0.32640
1851.27977	0.32654
1850.31556	0.32661
1849.35135	0.32617
1848.38714	0.32524
1847.42293	0.32493
1846.45873	0.32420
1845.49452	0.31793
1844.53031	0.30873
1843.56610	0.30997
1842.60189	0.31996
1841.63768	0.32624
1840.67348	0.32789
1839.70927	0.32837
1838.74506	0.32825
1837.78085	0.32772
1836.81664	0.32765
1835.85243	0.32836
1834.88823	0.32899
1833.92402	0.32910
1832.95981	0.32906
1831.99560	0.32772
1831.03139	0.32294
1830.06719	0.31813
1829.10298	0.31993
1828.13877	0.32572
1827.17456	0.32821
1826.21035	0.32556
1825.24614	0.32264
1824.28194	0.32469
1823.31773	0.32871
1822.35352	0.33058
1821.38931	0.33117
1820.42510	0.33156
1819.46090	0.33168
1818.49669	0.33136
1817.53248	0.33106
1816.56827	0.33144
1815.60406	0.33213
1814.63985	0.33246
1813.67565	0.33229
1812.71144	0.33154
1811.74723	0.32998
1810.78302	0.32881
1809.81881	0.32974
1808.85460	0.33151
1807.89040	0.33230
1806.92619	0.33271
1805.96198	0.33327
1804.99777	0.33349
1804.03356	0.33290
1803.06936	0.33106
1802.10515	0.32916
1801.14094	0.32821
1800.17673	0.32749
1799.21252	0.32836
1798.24831	0.33126
1797.28411	0.33295
1796.31990	0.33257
1795.35569	0.33231
1794.39148	0.32976
1793.42727	0.32145
1792.46307	0.31502
1791.49886	0.31891
1790.53465	0.32686
1789.57044	0.33231
1788.60623	0.33494
1787.64202	0.33567
1786.67782	0.33479
1785.71361	0.33211
1784.74940	0.33060
1783.78519	0.33273
1782.82098	0.33493
1781.85677	0.33402
1780.89257	0.33196
1779.92836	0.33232
1778.96415	0.33459
1777.99994	0.33607
1777.03573	0.33567
1776.07153	0.33419
1775.10732	0.33278
1774.14311	0.32680
1773.17890	0.31374
1772.21469	0.30729
1771.25048	0.31640
1770.28628	0.32751
1769.32207	0.32967
1768.35786	0.32661
1767.39365	0.32852
1766.42944	0.33461
1765.46524	0.33778
1764.50103	0.33794
1763.53682	0.33512
1762.57261	0.32834
1761.60840	0.32485
1760.64419	0.33009
1759.67999	0.33609
1758.71578	0.33660
1757.75157	0.33294
1756.78736	0.33010
1755.82315	0.33261
1754.85895	0.33682
1753.89474	0.33773
1752.93053	0.33283
1751.96632	0.32209
1751.00211	0.31656
1750.03790	0.32169
1749.07370	0.32633
1748.10949	0.32776
1747.14528	0.33032
1746.18107	0.33325
1745.21686	0.33437
1744.25265	0.33315
1743.28845	0.33197
1742.32424	0.33298
1741.36003	0.33107
1740.39582	0.32367
1739.43161	0.32136
1738.46741	0.32858
1737.50320	0.33468
1736.53899	0.33218
1735.57478	0.31623
1734.61057	0.29175
1733.64636	0.28700
1732.68216	0.30848
1731.71795	0.32716
1730.75374	0.33223
1729.78953	0.33246
1728.82532	0.33515
1727.86112	0.33805
1726.89691	0.33909
1725.93270	0.33926
1724.96849	0.33882
1724.00428	0.33791
1723.04007	0.33775
1722.07587	0.33877
1721.11166	0.33896
1720.14745	0.33470
1719.18324	0.32111
1718.21903	0.30159
1717.25482	0.29671
1716.29062	0.30973
1715.32641	0.32012
1714.36220	0.32594
1713.39799	0.33354
1712.43378	0.33919
1711.46958	0.34055
1710.50537	0.34002
1709.54116	0.34022
1708.57695	0.34048
1707.61274	0.33719
1706.64853	0.33180
1705.68433	0.32909
1704.72012	0.33008
1703.75591	0.33375
1702.79170	0.33488
1701.82749	0.31968
1700.86329	0.28651
1699.89908	0.27688
1698.93487	0.30664
1697.97066	0.32609
1697.00645	0.31478
1696.04224	0.29336
1695.07804	0.30252
1694.11383	0.32894
1693.14962	0.34206
1692.18541	0.34401
1691.22120	0.34285
1690.25699	0.34095
1689.29279	0.33996
1688.32858	0.34031
1687.36437	0.34021
1686.40016	0.33000
1685.43595	0.30208
1684.47175	0.28094
1683.50754	0.29684
1682.54333	0.32329
1681.57912	0.33683
1680.61491	0.33989
1679.65070	0.34089
1678.68650	0.34326
1677.72229	0.34369
1676.75808	0.33645
1675.79387	0.32294
1674.82966	0.32056
1673.86546	0.33273
1672.90125	0.33981
1671.93704	0.33740
1670.97283	0.33182
1670.00862	0.32444
1669.04441	0.32221
1668.08021	0.33160
1667.11600	0.34182
1666.15179	0.34559
1665.18758	0.34539
1664.22337	0.34090
1663.25916	0.33352
1662.29496	0.33248
1661.33075	0.33929
1660.36654	0.34471
1659.40233	0.34614
1658.43812	0.34620
1657.47392	0.34568
1656.50971	0.34307
1655.54550	0.33223
1654.58129	0.30344
1653.61708	0.25794
1652.65287	0.24552
1651.68867	0.29047
1650.72446	0.32929
1649.76025	0.34022
1648.79604	0.33524
1647.83183	0.32524
1646.86763	0.31461
1645.90342	0.31302
1644.93921	0.32674
1643.97500	0.34089
1643.01079	0.34587
1642.04658	0.34639
1641.08238	0.34650
1640.11817	0.34644
1639.15396	0.34500
1638.18975	0.34067
1637.22554	0.33047
1636.26133	0.31248
1635.29713	0.30425
1634.33292	0.32140
1633.36871	0.34055
1632.40450	0.34758
1631.44029	0.34868
1630.47609	0.34866
1629.51188	0.34699
1628.54767	0.34313
1627.58346	0.34130
1626.61925	0.34409
1625.65504	0.34563
1624.69084	0.34012
1623.72663	0.33232
1622.76242	0.33341
1621.79821	0.34076
1620.83400	0.34489
1619.86980	0.34539
1618.90559	0.34220
1617.94138	0.32826
1616.97717	0.30970
1616.01296	0.31429
1615.04875	0.33506
1614.08455	0.34641
1613.12034	0.34867
1612.15613	0.34903
1611.19192	0.34889
1610.22771	0.34811
1609.26351	0.34778
1608.29930	0.34845
1607.33509	0.34935
1606.37088	0.35036
1605.40667	0.35143
1604.44246	0.35190
1603.47826	0.35192
1602.51405	0.35229
1601.54984	0.35305
1600.58563	0.35388
1599.62142	0.35466
1598.65721	0.35519
1597.69301	0.35543
1596.72880	0.35540
1595.76459	0.35522
1594.80038	0.35517
1593.83617	0.35571
1592.87197	0.35656
1591.90776	0.35708
1590.94355	0.35731
1589.97934	0.35750
1589.01513	0.35782
1588.05092	0.35813
1587.08672	0.35836
1586.12251	0.35851
1585.15830	0.35867
1584.19409	0.35884
1583.22988	0.35904
1582.26568	0.35934
1581.30147	0.35968
1580.33726	0.35995
1579.37305	0.35985
1578.40884	0.35657
1577.44463	0.34242
1576.48043	0.32281
1575.51622	0.32640
1574.55201	0.34781
1573.58780	0.35996
1572.62359	0.36228
1571.65938	0.35998
1570.69518	0.35166
1569.73097	0.34396
1568.76676	0.34837
1567.80255	0.35839
1566.83834	0.36279
1565.87414	0.36141
1564.90993	0.35959
1563.94572	0.36112
1562.98151	0.36340
1562.01730	0.35774
1561.05309	0.33564
1560.08889	0.30288
1559.12468	0.28366
1558.16047	0.29350
1557.19626	0.32428
1556.23205	0.34836
1555.26785	0.35112
1554.30364	0.34692
1553.33943	0.35377
1552.37522	0.36356
1551.41101	0.36527
1550.44680	0.36232
1549.48260	0.36238
1548.51839	0.36611
1547.55418	0.36831
1546.58997	0.36471
1545.62576	0.35725
1544.66155	0.35364
1543.69735	0.35161
1542.73314	0.34213
1541.76893	0.33013
1540.80472	0.31902
1539.84051	0.30671
1538.87631	0.31429
1537.91210	0.34296
1536.94789	0.36359
1535.98368	0.36859
1535.01947	0.36328
1534.05526	0.35487
1533.09106	0.35450
1532.12685	0.36281
1531.16264	0.36968
1530.19843	0.37187
1529.23422	0.37030
1528.27002	0.36723
1527.30581	0.36467
1526.34160	0.36090
1525.37739	0.35878
1524.41318	0.36122
1523.44897	0.35944
1522.48477	0.34650
1521.52056	0.33261
1520.55635	0.33715
1519.59214	0.35401
1518.62793	0.36140
1517.66372	0.35698
1516.69952	0.35498
1515.73531	0.36048
1514.77110	0.36607
1513.80689	0.36746
1512.84268	0.36510
1511.87848	0.36398
1510.91427	0.36514
1509.95006	0.36345
1508.98585	0.35565
1508.02164	0.33900
1507.05743	0.31825
1506.09323	0.31519
1505.12902	0.33767
1504.16481	0.36229
1503.20060	0.37406
1502.23639	0.37642
1501.27219	0.37646
1500.30798	0.37421
1499.34377	0.36920
1498.37956	0.36622
1497.41535	0.36280
1496.45114	0.35760
1495.48694	0.36234
1494.52273	0.37407
1493.55852	0.37994
1492.59431	0.37919
1491.63010	0.37374
1490.66590	0.36691
1489.70169	0.36595
1488.73748	0.36957
1487.77327	0.37147
1486.80906	0.37341
1485.84485	0.37768
1484.88065	0.38086
1483.91644	0.38170
1482.95223	0.38135
1481.98802	0.38028
1481.02381	0.37976
1480.05960	0.38044
1479.09540	0.38114
1478.13119	0.37972
1477.16698	0.37507
1476.20277	0.37113
1475.23856	0.36998
1474.27436	0.36468
1473.31015	0.35463
1472.34594	0.35164
1471.38173	0.36084
1470.41752	0.37264
1469.45331	0.37859
1468.48911	0.37972
1467.52490	0.37942
1466.56069	0.37613
1465.59648	0.36902
1464.63227	0.36612
1463.66807	0.37236
1462.70386	0.37884
1461.73965	0.38065
1460.77544	0.37933
1459.81123	0.37427
1458.84702	0.36359
1457.88282	0.34560
1456.91861	0.33306
1455.95440	0.34578
1454.99019	0.36761
1454.02598	0.37888
1453.06177	0.38155
1452.09757	0.38193
1451.13336	0.38272
1450.16915	0.38336
1449.20494	0.38129
1448.24073	0.37808
1447.27653	0.37878
1446.31232	0.38265
1445.34811	0.38521
1444.38390	0.38597
1443.41969	0.38636
1442.45548	0.38658
1441.49128	0.38677
1440.52707	0.38693
1439.56286	0.38670
1438.59865	0.38259
1437.63444	0.37071
1436.67024	0.36199
1435.70603	0.37021
1434.74182	0.38250
1433.77761	0.38702
1432.81340	0.38752
1431.84919	0.38722
1430.88499	0.38533
1429.92078	0.38380
1428.95657	0.38540
1427.99236	0.38824
1427.02815	0.38963
1426.06394	0.38967
1425.09974	0.38822
1424.13553	0.38653
1423.17132	0.38717
1422.20711	0.38901
1421.24290	0.38626
1420.27870	0.37520
1419.31449	0.36651
1418.35028	0.37248
1417.38607	0.38270
1416.42186	0.38791
1415.45765	0.39037
1414.49345	0.39177
1413.52924	0.39222
1412.56503	0.39220
1411.60082	0.39218
1410.63661	0.39248
1409.67241	0.39294
1408.70820	0.39340
1407.74399	0.39369
1406.77978	0.39306
1405.81557	0.39100
1404.85136	0.38985
1403.88716	0.39164
1402.92295	0.39400
1401.95874	0.39479
1400.99453	0.39352
1400.03032	0.38979
1399.06611	0.38702
1398.10191	0.38874
1397.13770	0.39130
1396.17349	0.39000
1395.20928	0.38601
1394.24507	0.38566
1393.28087	0.39076
1392.31666	0.39536
1391.35245	0.39673
1390.38824	0.39687
1389.42403	0.39570
1388.45982	0.39166
1387.49562	0.38816
1386.53141	0.39027
1385.56720	0.39468
1384.60299	0.39678
1383.63878	0.39730
1382.67458	0.39767
1381.71037	0.39808
1380.74616	0.39837
1379.78195	0.39849
1378.81774	0.39855
1377.85353	0.39881
1376.88933	0.39900
1375.92512	0.39809
1374.96091	0.39610
1373.99670	0.39524
1373.03249	0.39712
1372.06829	0.39993
1371.10408	0.40137
1370.13987	0.40143
1369.17566	0.40093
1368.21145	0.40096
1367.24724	0.40178
1366.28304	0.40250
1365.31883	0.40232
1364.35462	0.40043
1363.39041	0.39797
1362.42620	0.39761
1361.46199	0.39917
1360.49779	0.40120
1359.53358	0.40319
1358.56937	0.40438
1357.60516	0.40490
1356.64095	0.40528
1355.67675	0.40544
1354.71254	0.40564
1353.74833	0.40612
1352.78412	0.40666
1351.81991	0.40705
1350.85570	0.40728
1349.89150	0.40741
1348.92729	0.40760
1347.96308	0.40796
1346.99887	0.40835
1346.03466	0.40870
1345.07046	0.40900
1344.10625	0.40921
1343.14204	0.40932
1342.17783	0.40903
1341.21362	0.40797
1340.24941	0.40677
1339.28521	0.40664
1338.32100	0.40757
1337.35679	0.40866
1336.39258	0.40964
1335.42837	0.41065
1334.46416	0.41138
1333.49996	0.41162
1332.53575	0.41177
1331.57154	0.41202
1330.60733	0.41229
1329.64312	0.41250
1328.67892	0.41266
1327.71471	0.41279
1326.75050	0.41298
1325.78629	0.41327
1324.82208	0.41351
1323.85787	0.41365
1322.89367	0.41376
1321.92946	0.41384
1320.96525	0.41376
1320.00104	0.41346
1319.03683	0.41330
1318.07263	0.41353
1317.10842	0.41394
1316.14421	0.41432
1315.18000	0.41457
1314.21579	0.41460
1313.25158	0.41459
1312.28738	0.41483
1311.32317	0.41530
1310.35896	0.41566
1309.39475	0.41577
1308.43054	0.41579
1307.46633	0.41578
1306.50213	0.41566
1305.53792	0.41562
1304.57371	0.41583
1303.60950	0.41614
1302.64529	0.41641
1301.68109	0.41667
1300.71688	0.41692
1299.75267	0.41717
1298.78846	0.41737
1297.82425	0.41751
1296.86004	0.41765
1295.89584	0.41784
1294.93163	0.41807
1293.96742	0.41830
1293.00321	0.41852
1292.03900	0.41870
1291.07480	0.41885
1290.11059	0.41898
1289.14638	0.41906
1288.18217	0.41913
1287.21796	0.41936
1286.25375	0.41972
1285.28955	0.42002
1284.32534	0.42018
1283.36113	0.42028
1282.39692	0.42040
1281.43271	0.42052
1280.46850	0.42059
1279.50430	0.42063
1278.54009	0.42065
1277.57588	0.42063
1276.61167	0.42057
1275.64746	0.42048
1274.68326	0.42038
1273.71905	0.42025
1272.75484	0.41997
1271.79063	0.41960
1270.82642	0.41931
1269.86221	0.41905
1268.89801	0.41868
1267.93380	0.41820
1266.96959	0.41767
1266.00538	0.41714
1265.04117	0.41668
1264.07697	0.41631
1263.11276	0.41598
1262.14855	0.41566
1261.18434	0.41537
1260.22013	0.41527
1259.25592	0.41551
1258.29172	0.41587
1257.32751	0.41613
1256.36330	0.41631
1255.39909	0.41648
1254.43488	0.41659
1253.47068	0.41666
1252.50647	0.41671
1251.54226	0.41673
1250.57805	0.41671
1249.61384	0.41671
1248.64963	0.41672
1247.68543	0.41674
1246.72122	0.41677
1245.75701	0.41680
1244.79280	0.41683
1243.82859	0.41692
1242.86438	0.41709
1241.90018	0.41728
1240.93597	0.41749
1239.97176	0.41771
1239.00755	0.41799
1238.04334	0.41831
1237.07914	0.41864
1236.11493	0.41899
1235.15072	0.41938
1234.18651	0.41980
1233.22230	0.42022
1232.25809	0.42067
1231.29389	0.42114
1230.32968	0.42163
1229.36547	0.42213
1228.40126	0.42263
1227.43705	0.42310
1226.47285	0.42352
1225.50864	0.42392
1224.54443	0.42435
1223.58022	0.42480
1222.61601	0.42521
1221.65180	0.42558
1220.68760	0.42593
1219.72339	0.42627
1218.75918	0.42659
1217.79497	0.42692
1216.83076	0.42723
1215.86655	0.42752
1214.90235	0.42780
1213.93814	0.42803
1212.97393	0.42819
1212.00972	0.42835
1211.04551	0.42859
1210.08131	0.42883
1209.11710	0.42904
1208.15289	0.42917
1207.18868	0.42926
1206.22447	0.42933
1205.26026	0.42939
1204.29606	0.42942
1203.33185	0.42944
1202.36764	0.42944
1201.40343	0.42941
1200.43922	0.42933
1199.47502	0.42922
1198.51081	0.42908
1197.54660	0.42893
1196.58239	0.42880
1195.61818	0.42865
1194.65397	0.42845
1193.68977	0.42818
1192.72556	0.42786
1191.76135	0.42753
1190.79714	0.42718
1189.83293	0.42680
1188.86872	0.42640
1187.90452	0.42598
1186.94031	0.42557
1185.97610	0.42520
1185.01189	0.42482
1184.04768	0.42433
1183.08348	0.42366
1182.11927	0.42287
1181.15506	0.42225
1180.19085	0.42218
1179.22664	0.42259
1178.26243	0.42317
1177.29823	0.42365
1176.33402	0.42398
1175.36981	0.42413
1174.40560	0.42414
1173.44139	0.42408
1172.47719	0.42397
1171.51298	0.42378
1170.54877	0.42351
1169.58456	0.42317
1168.62035	0.42277
1167.65614	0.42234
1166.69194	0.42187
1165.72773	0.42136
1164.76352	0.42085
1163.79931	0.42035
1162.83510	0.41991
1161.87089	0.41950
1160.90669	0.41910
1159.94248	0.41867
1158.97827	0.41826
1158.01406	0.41790
1157.04985	0.41757
1156.08565	0.41723
1155.12144	0.41687
1154.15723	0.41653
1153.19302	0.41620
1152.22881	0.41588
1151.26460	0.41558
1150.30040	0.41539
1149.33619	0.41534
1148.37198	0.41537
1147.40777	0.41540
1146.44356	0.41537
1145.47936	0.41531
1144.51515	0.41523
1143.55094	0.41513
1142.58673	0.41502
1141.62252	0.41497
1140.65831	0.41497
1139.69411	0.41497
1138.72990	0.41496
1137.76569	0.41489
1136.80148	0.41474
1135.83727	0.41454
1134.87306	0.41436
1133.90886	0.41421
1132.94465	0.41405
1131.98044	0.41386
1131.01623	0.41362
1130.05202	0.41338
1129.08782	0.41315
1128.12361	0.41292
1127.15940	0.41265
1126.19519	0.41236
1125.23098	0.41208
1124.26677	0.41182
1123.30257	0.41157
1122.33836	0.41131
1121.37415	0.41103
1120.40994	0.41076
1119.44573	0.41053
1118.48153	0.41032
1117.51732	0.41009
1116.55311	0.40982
1115.58890	0.40958
1114.62469	0.40938
1113.66048	0.40915
1112.69628	0.40887
1111.73207	0.40862
1110.76786	0.40845
1109.80365	0.40833
1108.83944	0.40818
1107.87524	0.40796
1106.91103	0.40768
1105.94682	0.40733
1104.98261	0.40691
1104.01840	0.40638
1103.05419	0.40573
1102.08999	0.40494
1101.12578	0.40405
1100.16157	0.40309
1099.19736	0.40202
1098.23315	0.40081
1097.26894	0.39949
1096.30474	0.39811
1095.34053	0.39662
1094.37632	0.39498
1093.41211	0.39319
1092.44790	0.39129
1091.48370	0.38930
1090.51949	0.38720
1089.55528	0.38497
1088.59107	0.38259
1087.62686	0.38012
1086.66265	0.37760
1085.69845	0.37501
1084.73424	0.37231
1083.77003	0.36948
1082.80582	0.36654
1081.84161	0.36353
1080.87741	0.36052
1079.91320	0.35759
1078.94899	0.35472
1077.98478	0.35186
1077.02057	0.34897
1076.05636	0.34606
1075.09216	0.34317
1074.12795	0.34033
1073.16374	0.33756
1072.19953	0.33485
1071.23532	0.33216
1070.27111	0.32947
1069.30691	0.32681
1068.34270	0.32420
1067.37849	0.32165
1066.41428	0.31918
1065.45007	0.31677
1064.48587	0.31437
1063.52166	0.31200
1062.55745	0.30971
1061.59324	0.30748
1060.62903	0.30530
1059.66482	0.30313
1058.70062	0.30101
1057.73641	0.29897
1056.77220	0.29702
1055.80799	0.29509
1054.84378	0.29314
1053.87958	0.29123
1052.91537	0.28942
1051.95116	0.28771
1050.98695	0.28605
1050.02274	0.28439
1049.05853	0.28277
1048.09433	0.28125
1047.13012	0.27979
1046.16591	0.27837
1045.20170	0.27698
1044.23749	0.27562
1043.27328	0.27431
1042.30908	0.27307
1041.34487	0.27189
1040.38066	0.27074
1039.41645	0.26966
1038.45224	0.26865
1037.48804	0.26767
1036.52383	0.26670
1035.55962	0.26574
1034.59541	0.26480
1033.63120	0.26391
1032.66699	0.26305
1031.70279	0.26220
1030.73858	0.26137
1029.77437	0.26061
1028.81016	0.25993
1027.84595	0.25932
1026.88175	0.25874
1025.91754	0.25817
1024.95333	0.25765
1023.98912	0.25720
1023.02491	0.25682
1022.06070	0.25649
1021.09650	0.25622
1020.13229	0.25605
1019.16808	0.25593
1018.20387	0.25588
1017.23966	0.25590
1016.27545	0.25597
1015.31125	0.25609
1014.34704	0.25633
1013.38283	0.25667
1012.41862	0.25708
1011.45441	0.25754
1010.49021	0.25810
1009.52600	0.25878
1008.56179	0.25951
1007.59758	0.26027
1006.63337	0.26102
1005.66916	0.26174
1004.70496	0.26243
1003.74075	0.26311
1002.77654	0.26378
1001.81233	0.26447
1000.84812	0.26516
999.88392	0.26587
998.91971	0.26658
997.95550	0.26728
996.99129	0.26799
996.02708	0.26876
995.06287	0.26959
994.09867	0.27043
993.13446	0.27128
992.17025	0.27214
991.20604	0.27302
990.24183	0.27392
989.27763	0.27485
988.31342	0.27579
987.34921	0.27674
986.38500	0.27767
985.42079	0.27861
984.45658	0.27952
983.49238	0.28040
982.52817	0.28128
981.56396	0.28219
980.59975	0.28311
979.63554	0.28401
978.67133	0.28485
977.70713	0.28564
976.74292	0.28639
975.77871	0.28710
974.81450	0.28781
973.85029	0.28852
972.88609	0.28924
971.92188	0.28994
970.95767	0.29062
969.99346	0.29127
969.02925	0.29189
968.06504	0.29253
967.10084	0.29318
966.13663	0.29386
965.17242	0.29453
964.20821	0.29514
963.24400	0.29572
962.27980	0.29635
961.31559	0.29699
960.35138	0.29761
959.38717	0.29819
958.42296	0.29877
957.45875	0.29938
956.49455	0.30002
955.53034	0.30064
954.56613	0.30123
953.60192	0.30181
952.63771	0.30240
951.67350	0.30302
950.70930	0.30364
949.74509	0.30423
948.78088	0.30484
947.81667	0.30545
946.85246	0.30603
945.88826	0.30657
944.92405	0.30709
943.95984	0.30762
942.99563	0.30817
942.03142	0.30870
941.06721	0.30919
940.10301	0.30963
939.13880	0.31005
938.17459	0.31047
937.21038	0.31091
936.24617	0.31134
935.28197	0.31170
934.31776	0.31202
933.35355	0.31236
932.38934	0.31275
931.42513	0.31310
930.46092	0.31340
929.49672	0.31372
928.53251	0.31405
927.56830	0.31436
926.60409	0.31464
925.63988	0.31488
924.67567	0.31510
923.71147	0.31535
922.74726	0.31562
921.78305	0.31583
920.81884	0.31599
919.85463	0.31617
918.89043	0.31638
917.92622	0.31660
916.96201	0.31679
915.99780	0.31695
915.03359	0.31713
914.06938	0.31734
913.10518	0.31754
912.14097	0.31769
911.17676	0.31781
910.21255	0.31791
909.24834	0.31803
908.28414	0.31813
907.31993	0.31818
906.35572	0.31819
905.39151	0.31820
904.42730	0.31824
903.46309	0.31827
902.49889	0.31826
901.53468	0.31821
900.57047	0.31819
899.60626	0.31821
898.64205	0.31820
897.67784	0.31812
896.71364	0.31803
895.74943	0.31797
894.78522	0.31791
893.82101	0.31779
892.85680	0.31765
891.89260	0.31753
890.92839	0.31742
889.96418	0.31728
888.99997	0.31707
888.03576	0.31681
887.07155	0.31659
886.10735	0.31644
885.14314	0.31627
884.17893	0.31599
883.21472	0.31559
882.25051	0.31522
881.28631	0.31494
880.32210	0.31465
879.35789	0.31421
878.39368	0.31367
877.42947	0.31316
876.46526	0.31271
875.50106	0.31224
874.53685	0.31170
873.57264	0.31108
872.60843	0.31048
871.64422	0.31002
870.68002	0.30959
869.71581	0.30903
868.75160	0.30836
867.78739	0.30770
866.82318	0.30711
865.85897	0.30650
864.89477	0.30576
863.93056	0.30494
862.96635	0.30413
862.00214	0.30339
861.03793	0.30269
860.07372	0.30188
859.10952	0.30095
858.14531	0.29999
857.18110	0.29911
856.21689	0.29821
855.25268	0.29716
854.28848	0.29598
853.32427	0.29483
852.36006	0.29374
851.39585	0.29259
850.43164	0.29125
849.46743	0.28979
848.50323	0.28836
847.53902	0.28702
846.57481	0.28567
845.61060	0.28425
844.64639	0.28280
843.68219	0.28141
842.71798	0.28012
841.75377	0.27887
840.78956	0.27753
839.82535	0.27611
838.86114	0.27475
837.89694	0.27351
836.93273	0.27229
835.96852	0.27097
835.00431	0.26961
834.04010	0.26839
833.07589	0.26737
832.11169	0.26640
831.14748	0.26529
830.18327	0.26408
829.21906	0.26298
828.25485	0.26211
827.29065	0.26135
826.32644	0.26054
825.36223	0.25985
824.39802	0.25958
823.43381	0.25970
822.46960	0.25995
821.50540	0.26016
820.54119	0.26035
819.57698	0.26060
818.61277	0.26088
817.64856	0.26101
816.68436	0.26088
815.72015	0.26050
814.75594	0.26000
813.79173	0.25952
812.82752	0.25904
811.86331	0.25846
810.89911	0.25776
809.93490	0.25707
808.97069	0.25658
808.00648	0.25617
807.04227	0.25569
806.07806	0.25530
805.11386	0.25526
804.14965	0.25548
803.18544	0.25571
802.22123	0.25585
801.25702	0.25610
800.29282	0.25664
799.32861	0.25738
798.36440	0.25807
797.40019	0.25861
796.43598	0.25907
795.47177	0.25966
794.50757	0.26041
793.54336	0.26110
792.57915	0.26157
791.61494	0.26195
790.65073	0.26249
789.68653	0.26316
788.72232	0.26372
787.75811	0.26408
786.79390	0.26434
785.82969	0.26459
784.86548	0.26486
783.90128	0.26504
782.93707	0.26502
781.97286	0.26491
781.00865	0.26485
780.04444	0.26472
779.08023	0.26432
778.11603	0.26370
777.15182	0.26309
776.18761	0.26262
775.22340	0.26214
774.25919	0.26148
773.29499	0.26061
772.33078	0.25975
771.36657	0.25905
770.40236	0.25837
769.43815	0.25755
768.47394	0.25663
767.50974	0.25583
766.54553	0.25521
765.58132	0.25459
764.61711	0.25376
763.65290	0.25273
762.68870	0.25165
761.72449	0.25069
760.76028	0.24983
759.79607	0.24884
758.83186	0.24763
757.86765	0.24642
756.90345	0.24543
755.93924	0.24457
754.97503	0.24357
754.01082	0.24240
753.04661	0.24136
752.08241	0.24065
751.11820	0.23994
750.15399	0.23886
749.18978	0.23764
748.22557	0.23671
747.26136	0.23595
746.29716	0.23504
745.33295	0.23401
744.36874	0.23307
743.40453	0.23227
742.44032	0.23147
741.47611	0.23061
740.51191	0.22963
739.54770	0.22847
738.58349	0.22728
737.61928	0.22642
736.65507	0.22599
735.69087	0.22558
734.72666	0.22498
733.76245	0.22452
732.79824	0.22421
731.83403	0.22354
730.86982	0.22239
729.90562	0.22113
728.94141	0.22005
727.97720	0.21917
727.01299	0.21837
726.04878	0.21751
725.08458	0.21655
724.12037	0.21559
723.15616	0.21466
722.19195	0.21345
721.22774	0.21173
720.26353	0.20998
719.29933	0.20896
718.33512	0.20838
717.37091	0.20738
716.40670	0.20571
715.44249	0.20380
714.47828	0.20200
713.51408	0.20027
712.54987	0.19842
711.58566	0.19625
710.62145	0.19376
709.65724	0.19127
708.69304	0.18888
707.72883	0.18614
706.76462	0.18267
705.80041	0.17899
704.83620	0.17567
703.87199	0.17240
702.90779	0.16851
701.94358	0.16408
700.97937	0.15966
700.01516	0.15520
699.05095	0.15023
698.08675	0.14487
697.12254	0.13950
696.15833	0.13387
695.19412	0.12775
694.22991	0.12159
693.26570	0.11528
692.30150	0.10807
691.33729	0.09988
690.37308	0.09148
689.40887	0.08301
688.44466	0.07389
687.48045	0.06419
686.51625	0.05433
685.55204	0.04435
684.58783	0.03337
683.62362	0.02090
682.65941	0.00756
681.69521	-0.00632
680.73100	-0.02120
679.76679	-0.03749
678.80258	-0.05483
677.83837	-0.07281
676.87416	-0.09072
675.90996	-0.10786
674.94575	-0.12429
673.98154	-0.14105
673.01733	-0.15956
672.05312	-0.18005
671.08892	-0.20414
670.12471	-0.24617
669.16050	-0.32401
668.19629	-0.35692
667.23208	-0.35858
666.26787	-0.35614
665.30367	-0.35010
664.33946	-0.36009
663.37525	-0.36706
662.41104	-0.36788
661.44683	-0.36406
660.48262	-0.35642
659.51842	-0.34563
658.55421	-0.33211
657.59000	-0.31578
656.62579	-0.29574
655.66158	-0.27003
654.69738	-0.23718
653.73317	-0.19797
652.76896	-0.15493
651.80475	-0.10997
650.84054	-0.06467
649.87633	-0.01985
648.91213	0.02339
647.94792	0.06404
646.98371	0.10277
646.01950	0.14066
645.05529	0.17825
644.09109	0.21487
643.12688	0.24969
642.16267	0.28314
641.19846	0.31646
640.23425	0.34958
639.27004	0.38126
638.30584	0.41124
637.34163	0.44018
636.37742	0.46901
635.41321	0.49741
634.44900	0.52432
633.48479	0.55022
632.52059	0.57618
631.55638	0.60255
630.59217	0.62910
629.62796	0.65574
628.66375	0.68240
627.69955	0.70902
626.73534	0.73656
625.77113	0.76556
624.80692	0.79457
623.84271	0.82278
622.87850	0.85162
621.91430	0.88186
620.95009	0.91271
619.98588	0.94348
619.02167	0.97432
618.05746	1.00569
617.09326	1.03767
616.12905	1.06961
615.16484	1.10068
614.20063	1.13136
613.23642	1.16256
612.27221	1.19429
611.30801	1.22623
610.34380	1.25772
609.37959	1.28819
608.41538	1.31792
607.45117	1.34745
606.48697	1.37681
605.52276	1.40540
604.55855	1.43309
603.59434	1.46049
602.63013	1.48762
601.66592	1.51384
600.70172	1.53913
599.73751	1.56371
